C:\incoming\KFe2As2-00838.tif: 2-theta Scan
2-Theta Angle (Degrees)

       2048
 1.0247073E-02  1.5393539E+03
 3.0741220E-02  1.5890055E+03
 5.1235367E-02  1.6019459E+03
 7.1729511E-02  1.5951422E+03
 9.2223659E-02  1.5930436E+03
 1.1271781E-01  1.6036180E+03
 1.3321196E-01  1.6205377E+03
 1.5370610E-01  1.6547942E+03
 1.7420025E-01  1.6969803E+03
 1.9469440E-01  1.7427029E+03
 2.1518855E-01  1.8587402E+03
 2.3568270E-01  2.1984478E+03
 2.5617683E-01  2.8273171E+03
 2.7667099E-01  3.8333022E+03
 2.9716513E-01  4.9669443E+03
 3.1765929E-01  6.2124380E+03
 3.3815342E-01  7.5319258E+03
 3.5864758E-01  8.8569844E+03
 3.7914172E-01  1.0075003E+04
 3.9963588E-01  1.0908305E+04
 4.2013001E-01  1.1298457E+04
 4.4062415E-01  1.1281905E+04
 4.6111831E-01  1.1060638E+04
 4.8161244E-01  1.0832757E+04
 5.0210661E-01  1.0694238E+04
 5.2260077E-01  1.0672688E+04
 5.4309487E-01  1.0714005E+04
 5.6358904E-01  1.0738548E+04
 5.8408320E-01  1.0780176E+04
 6.0457736E-01  1.0816478E+04
 6.2507147E-01  1.0832442E+04
 6.4556563E-01  1.0840287E+04
 6.6605979E-01  1.0854107E+04
 6.8655390E-01  1.0870775E+04
 7.0704806E-01  1.0849762E+04
 7.2754222E-01  1.0899139E+04
 7.4803638E-01  1.1102479E+04
 7.6853049E-01  1.1572617E+04
 7.8902465E-01  1.3096692E+04
 8.0951881E-01  1.7554680E+04
 8.3001298E-01  2.9068717E+04
 8.5050708E-01  4.8104242E+04
 8.7100124E-01  6.7904711E+04
 8.9149541E-01  7.5864469E+04
 9.1198957E-01  6.9658945E+04
 9.3248367E-01  5.2846145E+04
 9.5297784E-01  3.2415104E+04
 9.7347200E-01  1.8481176E+04
 9.9396610E-01  1.2484731E+04
 1.0144603E+00  1.0361138E+04
 1.0349544E+00  9.5516543E+03
 1.0554485E+00  9.1705537E+03
 1.0759428E+00  8.9238906E+03
 1.0964369E+00  8.7428936E+03
 1.1169310E+00  8.5823477E+03
 1.1374252E+00  8.4379375E+03
 1.1579193E+00  8.3030127E+03
 1.1784135E+00  8.2001133E+03
 1.1989076E+00  8.1069756E+03
 1.2194017E+00  8.0273013E+03
 1.2398959E+00  7.9537666E+03
 1.2603900E+00  7.8736753E+03
 1.2808841E+00  7.7443003E+03
 1.3013784E+00  7.6127510E+03
 1.3218725E+00  7.5318286E+03
 1.3423666E+00  7.4314004E+03
 1.3628608E+00  7.3490854E+03
 1.3833549E+00  7.2733643E+03
 1.4038491E+00  7.1715254E+03
 1.4243432E+00  7.0924019E+03
 1.4448373E+00  7.0183457E+03
 1.4653316E+00  6.9525586E+03
 1.4858257E+00  6.8986631E+03
 1.5063198E+00  6.8479253E+03
 1.5268140E+00  6.8324111E+03
 1.5473081E+00  6.8982524E+03
 1.5678022E+00  7.1696587E+03
 1.5882964E+00  8.0083076E+03
 1.6087905E+00  1.0088846E+04
 1.6292847E+00  1.3385462E+04
 1.6497788E+00  1.6655092E+04
 1.6702729E+00  1.8265445E+04
 1.6907672E+00  1.7458506E+04
 1.7112613E+00  1.4653158E+04
 1.7317554E+00  1.1341327E+04
 1.7522496E+00  9.0862891E+03
 1.7727437E+00  8.0616816E+03
 1.7932378E+00  7.7023188E+03
 1.8137320E+00  7.5002329E+03
 1.8342261E+00  7.3120557E+03
 1.8547204E+00  7.1775791E+03
 1.8752145E+00  7.1807607E+03
 1.8957086E+00  7.2929688E+03
 1.9162028E+00  7.4916548E+03
 1.9366969E+00  7.7941177E+03
 1.9571910E+00  8.3298223E+03
 1.9776852E+00  9.4419814E+03
 1.9981793E+00  1.2473647E+04
 2.0186734E+00  2.0936023E+04
 2.0391676E+00  3.9404715E+04
 2.0596619E+00  6.5669477E+04
 2.0801558E+00  8.8401578E+04
 2.1006501E+00  9.5783891E+04
 2.1211443E+00  8.4614727E+04
 2.1416383E+00  6.0742246E+04
 2.1621325E+00  3.5675574E+04
 2.1826267E+00  1.9312475E+04
 2.2031207E+00  1.2663893E+04
 2.2236149E+00  1.1390752E+04
 2.2441092E+00  1.2095537E+04
 2.2646031E+00  1.3055408E+04
 2.2850974E+00  1.3257795E+04
 2.3055916E+00  1.2337444E+04
 2.3260856E+00  1.0886150E+04
 2.3465798E+00  9.9473115E+03
 2.3670740E+00  1.0801502E+04
 2.3875682E+00  1.4538323E+04
 2.4080622E+00  2.0630684E+04
 2.4285564E+00  2.6342053E+04
 2.4490507E+00  2.8796432E+04
 2.4695446E+00  2.6541375E+04
 2.4900389E+00  2.0914451E+04
 2.5105331E+00  1.4708140E+04
 2.5310271E+00  1.0482700E+04
 2.5515213E+00  8.6298066E+03
 2.5720155E+00  8.0266719E+03
 2.5925095E+00  7.7193369E+03
 2.6130037E+00  7.4728643E+03
 2.6334980E+00  7.3239072E+03
 2.6539919E+00  7.5084136E+03
 2.6744862E+00  8.2095928E+03
 2.6949804E+00  9.4384111E+03
 2.7154744E+00  1.0698788E+04
 2.7359686E+00  1.1674392E+04
 2.7564628E+00  1.1788849E+04
 2.7769570E+00  1.1330906E+04
 2.7974510E+00  1.1505136E+04
 2.8179452E+00  1.4369756E+04
 2.8384395E+00  2.2561920E+04
 2.8589334E+00  3.5209363E+04
 2.8794277E+00  4.7077293E+04
 2.8999219E+00  5.1903699E+04
 2.9204159E+00  4.7099355E+04
 2.9409101E+00  3.5493781E+04
 2.9614043E+00  2.3204352E+04
 2.9818983E+00  1.4999351E+04
 3.0023925E+00  1.1981903E+04
 3.0228868E+00  1.2099889E+04
 3.0433807E+00  1.2792184E+04
 3.0638750E+00  1.2484459E+04
 3.0843692E+00  1.0972523E+04
 3.1048632E+00  9.8897578E+03
 3.1253574E+00  1.0465518E+04
 3.1458516E+00  1.3881904E+04
 3.1663456E+00  2.1265617E+04
 3.1868398E+00  3.1500553E+04
 3.2073340E+00  4.0278051E+04
 3.2278283E+00  4.3514355E+04
 3.2483222E+00  3.9823543E+04
 3.2688165E+00  3.1835328E+04
 3.2893107E+00  2.3650627E+04
 3.3098047E+00  1.9402543E+04
 3.3302989E+00  1.8221547E+04
 3.3507931E+00  1.7646795E+04
 3.3712871E+00  1.6185918E+04
 3.3917813E+00  1.3996697E+04
 3.4122756E+00  1.2399374E+04
 3.4327695E+00  1.3588451E+04
 3.4532638E+00  2.0002213E+04
 3.4737580E+00  3.1991619E+04
 3.4942520E+00  4.5974227E+04
 3.5147462E+00  5.6361336E+04
 3.5352404E+00  5.7940383E+04
 3.5557344E+00  5.0271402E+04
 3.5762286E+00  3.7818539E+04
 3.5967228E+00  2.6310594E+04
 3.6172171E+00  1.8675855E+04
 3.6377110E+00  1.4228139E+04
 3.6582053E+00  1.1424616E+04
 3.6786995E+00  9.4657383E+03
 3.6991935E+00  8.1516084E+03
 3.7196877E+00  7.5614224E+03
 3.7401819E+00  7.9065371E+03
 3.7606759E+00  9.9286543E+03
 3.7811701E+00  1.4782140E+04
 3.8016644E+00  2.2334479E+04
 3.8221583E+00  3.0056943E+04
 3.8426526E+00  3.4276270E+04
 3.8631468E+00  3.2976727E+04
 3.8836408E+00  2.6887299E+04
 3.9041350E+00  1.8946982E+04
 3.9246292E+00  1.2307038E+04
 3.9451232E+00  8.3742725E+03
 3.9656174E+00  6.5931665E+03
 3.9861116E+00  5.8062393E+03
 4.0066056E+00  5.4100259E+03
 4.0271001E+00  5.1969453E+03
 4.0475941E+00  5.0659424E+03
 4.0680881E+00  4.9719453E+03
 4.0885825E+00  4.9192061E+03
 4.1090765E+00  4.9207998E+03
 4.1295705E+00  5.0059238E+03
 4.1500649E+00  5.2208291E+03
 4.1705589E+00  5.5954702E+03
 4.1910529E+00  6.1375166E+03
 4.2115474E+00  6.7172300E+03
 4.2320414E+00  7.2723433E+03
 4.2525353E+00  7.7863271E+03
 4.2730298E+00  8.3939521E+03
 4.2935238E+00  8.7135898E+03
 4.3140178E+00  8.8206758E+03
 4.3345122E+00  8.8288809E+03
 4.3550062E+00  8.2894834E+03
 4.3755002E+00  7.3945898E+03
 4.3959947E+00  6.9310835E+03
 4.4164886E+00  7.0509170E+03
 4.4369826E+00  7.7270400E+03
 4.4574771E+00  8.8003770E+03
 4.4779711E+00  1.0110193E+04
 4.4984651E+00  1.1884324E+04
 4.5189595E+00  1.4075132E+04
 4.5394535E+00  1.6152598E+04
 4.5599475E+00  1.7280988E+04
 4.5804420E+00  1.6919305E+04
 4.6009359E+00  1.5268142E+04
 4.6214299E+00  1.3015641E+04
 4.6419244E+00  1.1042743E+04
 4.6624184E+00  9.6269092E+03
 4.6829128E+00  8.8003916E+03
 4.7034068E+00  8.7538379E+03
 4.7239008E+00  9.9108643E+03
 4.7443953E+00  1.2390445E+04
 4.7648892E+00  1.5692623E+04
 4.7853832E+00  1.8573721E+04
 4.8058777E+00  1.9759146E+04
 4.8263717E+00  1.8779904E+04
 4.8468657E+00  1.6001233E+04
 4.8673601E+00  1.2527120E+04
 4.8878541E+00  9.4633955E+03
 4.9083481E+00  7.4745918E+03
 4.9288425E+00  6.7571338E+03
 4.9493365E+00  7.1271055E+03
 4.9698305E+00  8.2892979E+03
 4.9903250E+00  9.7030635E+03
 5.0108190E+00  1.0782254E+04
 5.0313129E+00  1.1156027E+04
 5.0518074E+00  1.0696147E+04
 5.0723014E+00  9.7892656E+03
 5.0927954E+00  9.0894736E+03
 5.1132898E+00  9.2534248E+03
 5.1337838E+00  1.0265800E+04
 5.1542778E+00  1.1537109E+04
 5.1747723E+00  1.2346925E+04
 5.1952662E+00  1.2206629E+04
 5.2157602E+00  1.1238143E+04
 5.2362547E+00  9.9293428E+03
 5.2567487E+00  8.9016113E+03
 5.2772427E+00  8.4074912E+03
 5.2977371E+00  8.5458721E+03
 5.3182311E+00  9.4959785E+03
 5.3387251E+00  1.1729496E+04
 5.3592196E+00  1.5223444E+04
 5.3797135E+00  1.8716012E+04
 5.4002075E+00  2.0830043E+04
 5.4207020E+00  2.0453373E+04
 5.4411960E+00  1.8445086E+04
 5.4616899E+00  1.6298588E+04
 5.4821844E+00  1.4466157E+04
 5.5026784E+00  1.3472541E+04
 5.5231729E+00  1.2712582E+04
 5.5436668E+00  1.1408642E+04
 5.5641608E+00  9.6694053E+03
 5.5846553E+00  7.9519302E+03
 5.6051493E+00  6.7389985E+03
 5.6256433E+00  6.2606260E+03
 5.6461377E+00  6.3939033E+03
 5.6666317E+00  7.2721006E+03
 5.6871257E+00  9.4146084E+03
 5.7076201E+00  1.3125503E+04
 5.7281141E+00  1.7931385E+04
 5.7486081E+00  2.2305021E+04
 5.7691026E+00  2.4777211E+04
 5.7895966E+00  2.4381406E+04
 5.8100905E+00  2.1319088E+04
 5.8305850E+00  1.6832031E+04
 5.8510790E+00  1.2573319E+04
 5.8715730E+00  9.7421680E+03
 5.8920674E+00  8.5676133E+03
 5.9125614E+00  8.8436152E+03
 5.9330554E+00  9.8645283E+03
 5.9535499E+00  1.0902872E+04
 5.9740438E+00  1.1393468E+04
 5.9945378E+00  1.1118070E+04
 6.0150323E+00  1.0399443E+04
 6.0355263E+00  9.7130488E+03
 6.0560203E+00  9.4451035E+03
 6.0765147E+00  9.4987598E+03
 6.0970087E+00  9.5650439E+03
 6.1175027E+00  9.1750146E+03
 6.1379972E+00  8.3766191E+03
 6.1584911E+00  7.4625547E+03
 6.1789851E+00  6.7934375E+03
 6.1994796E+00  6.6133193E+03
 6.2199736E+00  6.9186528E+03
 6.2404675E+00  7.3978057E+03
 6.2609620E+00  7.7626260E+03
 6.2814560E+00  7.8199116E+03
 6.3019500E+00  7.6881055E+03
 6.3224444E+00  7.6747681E+03
 6.3429384E+00  7.9618228E+03
 6.3634324E+00  8.5687266E+03
 6.3839269E+00  9.3392568E+03
 6.4044209E+00  9.9326855E+03
 6.4249153E+00  1.0025481E+04
 6.4454093E+00  9.6964111E+03
 6.4659033E+00  9.0662813E+03
 6.4863977E+00  8.2981035E+03
 6.5068917E+00  7.5664683E+03
 6.5273857E+00  7.0366328E+03
 6.5478802E+00  6.8645781E+03
 6.5683742E+00  7.0974985E+03
 6.5888681E+00  7.7277573E+03
 6.6093626E+00  8.6328418E+03
 6.6298566E+00  9.5557383E+03
 6.6503506E+00  1.0253675E+04
 6.6708450E+00  1.0430822E+04
 6.6913390E+00  1.0029624E+04
 6.7118330E+00  9.4062813E+03
 6.7323275E+00  8.9918691E+03
 6.7528214E+00  8.8860693E+03
 6.7733154E+00  9.0596260E+03
 6.7938099E+00  9.2766270E+03
 6.8143039E+00  9.2665146E+03
 6.8347979E+00  8.9366133E+03
 6.8552923E+00  8.3809600E+03
 6.8757863E+00  7.7764214E+03
 6.8962803E+00  7.2711895E+03
 6.9167747E+00  6.8044546E+03
 6.9372687E+00  6.3825684E+03
 6.9577627E+00  6.1169766E+03
 6.9782572E+00  6.1671108E+03
 6.9987512E+00  6.6012188E+03
 7.0192451E+00  7.3435977E+03
 7.0397396E+00  8.1434326E+03
 7.0602336E+00  8.6286455E+03
 7.0807276E+00  8.6302031E+03
 7.1012220E+00  8.2112813E+03
 7.1217160E+00  7.6577798E+03
 7.1422100E+00  7.3401240E+03
 7.1627045E+00  7.4679600E+03
 7.1831985E+00  7.9278652E+03
 7.2036924E+00  8.4761523E+03
 7.2241869E+00  8.8051572E+03
 7.2446809E+00  8.8093740E+03
 7.2651753E+00  8.6353311E+03
 7.2856693E+00  8.5495029E+03
 7.3061633E+00  8.7657021E+03
 7.3266578E+00  9.2231416E+03
 7.3471518E+00  9.6051445E+03
 7.3676457E+00  9.6281963E+03
 7.3881402E+00  9.1864170E+03
 7.4086342E+00  8.3261270E+03
 7.4291282E+00  7.3106074E+03
 7.4496226E+00  6.4035039E+03
 7.4701166E+00  5.8503979E+03
 7.4906106E+00  5.6157441E+03
 7.5111051E+00  5.5804248E+03
 7.5315990E+00  5.6057314E+03
 7.5520930E+00  5.6959155E+03
 7.5725875E+00  5.8262358E+03
 7.5930815E+00  5.9320210E+03
 7.6135755E+00  5.9870566E+03
 7.6340699E+00  5.9347231E+03
 7.6545639E+00  5.7789312E+03
 7.6750579E+00  5.6103682E+03
 7.6955523E+00  5.5155029E+03
 7.7160463E+00  5.5694136E+03
 7.7365403E+00  5.8079800E+03
 7.7570348E+00  6.1469966E+03
 7.7775288E+00  6.4483262E+03
 7.7980227E+00  6.6390532E+03
 7.8185172E+00  6.6819189E+03
 7.8390112E+00  6.5668066E+03
 7.8595052E+00  6.3188696E+03
 7.8799996E+00  5.9993623E+03
 7.9004936E+00  5.6848691E+03
 7.9209876E+00  5.4128662E+03
 7.9414821E+00  5.2984443E+03
 7.9619761E+00  5.5047905E+03
 7.9824700E+00  6.1779209E+03
 8.0029640E+00  7.3342212E+03
 8.0234585E+00  8.7010215E+03
 8.0439529E+00  9.9150537E+03
 8.0644464E+00  1.0840207E+04
 8.0849409E+00  1.1200899E+04
 8.1054354E+00  1.0912140E+04
 8.1259289E+00  1.0175306E+04
 8.1464233E+00  9.2794541E+03
 8.1669178E+00  8.5200176E+03
 8.1874113E+00  8.0444355E+03
 8.2079058E+00  7.8037466E+03
 8.2284002E+00  7.6132622E+03
 8.2488937E+00  7.3577192E+03
 8.2693882E+00  7.0476011E+03
 8.2898827E+00  6.7732578E+03
 8.3103762E+00  6.6045552E+03
 8.3308706E+00  6.6153120E+03
 8.3513651E+00  6.8472012E+03
 8.3718586E+00  7.2651763E+03
 8.3923531E+00  7.7986021E+03
 8.4128475E+00  8.3057842E+03
 8.4333410E+00  8.6289443E+03
 8.4538355E+00  8.6319512E+03
 8.4743299E+00  8.3282676E+03
 8.4948244E+00  7.8005737E+03
 8.5153179E+00  7.1842090E+03
 8.5358124E+00  6.6599248E+03
 8.5563068E+00  6.3256895E+03
 8.5768003E+00  6.2474956E+03
 8.5972948E+00  6.4533130E+03
 8.6177893E+00  6.8466177E+03
 8.6382828E+00  7.2490039E+03
 8.6587772E+00  7.4990981E+03
 8.6792717E+00  7.5458081E+03
 8.6997652E+00  7.3853477E+03
 8.7202597E+00  7.0957310E+03
 8.7407541E+00  6.7852676E+03
 8.7612476E+00  6.5462813E+03
 8.7817421E+00  6.4075986E+03
 8.8022366E+00  6.2919541E+03
 8.8227301E+00  6.1123818E+03
 8.8432245E+00  5.8393984E+03
 8.8637190E+00  5.5080527E+03
 8.8842125E+00  5.2024126E+03
 8.9047070E+00  5.0478999E+03
 8.9252014E+00  5.0950444E+03
 8.9456949E+00  5.3006914E+03
 8.9661894E+00  5.5611309E+03
 8.9866838E+00  5.7720132E+03
 9.0071774E+00  5.8677007E+03
 9.0276718E+00  5.8367036E+03
 9.0481663E+00  5.7176504E+03
 9.0686598E+00  5.5353857E+03
 9.0891542E+00  5.3409692E+03
 9.1096487E+00  5.1732876E+03
 9.1301422E+00  5.0836313E+03
 9.1506367E+00  5.0435063E+03
 9.1711311E+00  5.0573481E+03
 9.1916246E+00  5.1364121E+03
 9.2121191E+00  5.2511558E+03
 9.2326136E+00  5.3700728E+03
 9.2531071E+00  5.4648257E+03
 9.2736015E+00  5.5084819E+03
 9.2940960E+00  5.4640273E+03
 9.3145895E+00  5.3096968E+03
 9.3350840E+00  5.1007188E+03
 9.3555784E+00  4.9154541E+03
 9.3760719E+00  4.8218145E+03
 9.3965664E+00  4.8558682E+03
 9.4170609E+00  4.9969858E+03
 9.4375544E+00  5.2190972E+03
 9.4580488E+00  5.4932925E+03
 9.4785433E+00  5.7981602E+03
 9.4990368E+00  6.1094917E+03
 9.5195313E+00  6.3791411E+03
 9.5400257E+00  6.5380977E+03
 9.5605192E+00  6.5758384E+03
 9.5810137E+00  6.5140142E+03
 9.6015081E+00  6.3516968E+03
 9.6220016E+00  6.1132021E+03
 9.6424961E+00  5.8312861E+03
 9.6629906E+00  5.5458340E+03
 9.6834841E+00  5.3270200E+03
 9.7039785E+00  5.2688711E+03
 9.7244730E+00  5.3667456E+03
 9.7449665E+00  5.5231807E+03
 9.7654610E+00  5.6479058E+03
 9.7859554E+00  5.7202070E+03
 9.8064489E+00  5.7506919E+03
 9.8269434E+00  5.7374517E+03
 9.8474379E+00  5.6765435E+03
 9.8679314E+00  5.5565542E+03
 9.8884258E+00  5.4047383E+03
 9.9089203E+00  5.2899834E+03
 9.9294138E+00  5.2304614E+03
 9.9499083E+00  5.2252964E+03
 9.9704027E+00  5.2480308E+03
 9.9908962E+00  5.2744624E+03
 1.0011391E+01  5.3205928E+03
 1.0031885E+01  5.3869702E+03
 1.0052379E+01  5.4581582E+03
 1.0072873E+01  5.5275122E+03
 1.0093368E+01  5.5811138E+03
 1.0113861E+01  5.6138232E+03
 1.0134356E+01  5.6302905E+03
 1.0154850E+01  5.5911299E+03
 1.0175344E+01  5.5106968E+03
 1.0195838E+01  5.4248867E+03
 1.0216332E+01  5.3778516E+03
 1.0236827E+01  5.4105566E+03
 1.0257320E+01  5.5176245E+03
 1.0277815E+01  5.6477500E+03
 1.0298309E+01  5.7544199E+03
 1.0318803E+01  5.8261104E+03
 1.0339297E+01  5.8678779E+03
 1.0359792E+01  5.8732124E+03
 1.0380285E+01  5.8016646E+03
 1.0400780E+01  5.6292495E+03
 1.0421274E+01  5.3699668E+03
 1.0441768E+01  5.0694414E+03
 1.0462262E+01  4.7968867E+03
 1.0482757E+01  4.6042407E+03
 1.0503250E+01  4.4817207E+03
 1.0523745E+01  4.4294604E+03
 1.0544239E+01  4.3705195E+03
 1.0564733E+01  4.3244580E+03
 1.0585227E+01  4.3137275E+03
 1.0605721E+01  4.3195640E+03
 1.0626215E+01  4.3201558E+03
 1.0646709E+01  4.3063032E+03
 1.0667204E+01  4.2823037E+03
 1.0687697E+01  4.2612661E+03
 1.0708192E+01  4.2732666E+03
 1.0728686E+01  4.3341387E+03
 1.0749180E+01  4.4287075E+03
 1.0769674E+01  4.5376592E+03
 1.0790169E+01  4.6535400E+03
 1.0810662E+01  4.7821729E+03
 1.0831157E+01  4.9233008E+03
 1.0851651E+01  5.0540547E+03
 1.0872145E+01  5.1575117E+03
 1.0892639E+01  5.2138999E+03
 1.0913134E+01  5.2229604E+03
 1.0933627E+01  5.2095747E+03
 1.0954122E+01  5.2076113E+03
 1.0974616E+01  5.2347813E+03
 1.0995110E+01  5.2904507E+03
 1.1015604E+01  5.3534531E+03
 1.1036098E+01  5.3983979E+03
 1.1056592E+01  5.4278730E+03
 1.1077086E+01  5.4211294E+03
 1.1097581E+01  5.3748188E+03
 1.1118074E+01  5.2901147E+03
 1.1138569E+01  5.1696167E+03
 1.1159063E+01  5.0185127E+03
 1.1179557E+01  4.8593154E+03
 1.1200051E+01  4.7211953E+03
 1.1220546E+01  4.6391606E+03
 1.1241039E+01  4.6156577E+03
 1.1261534E+01  4.6231382E+03
 1.1282028E+01  4.6466104E+03
 1.1302522E+01  4.6810068E+03
 1.1323016E+01  4.7236450E+03
 1.1343511E+01  4.7774229E+03
 1.1364004E+01  4.8259399E+03
 1.1384499E+01  4.8531470E+03
 1.1404993E+01  4.8763423E+03
 1.1425487E+01  4.9291528E+03
 1.1445981E+01  5.0292939E+03
 1.1466475E+01  5.1638188E+03
 1.1486969E+01  5.2860918E+03
 1.1507463E+01  5.3691416E+03
 1.1527958E+01  5.4083066E+03
 1.1548451E+01  5.4139863E+03
 1.1568946E+01  5.3882407E+03
 1.1589440E+01  5.3199629E+03
 1.1609934E+01  5.2243691E+03
 1.1630428E+01  5.1167686E+03
 1.1650923E+01  5.0100898E+03
 1.1671416E+01  4.9194189E+03
 1.1691911E+01  4.8578037E+03
 1.1712405E+01  4.8369014E+03
 1.1732899E+01  4.8510562E+03
 1.1753393E+01  4.8690630E+03
 1.1773888E+01  4.8808936E+03
 1.1794381E+01  4.8843867E+03
 1.1814876E+01  4.8663818E+03
 1.1835370E+01  4.8113950E+03
 1.1855864E+01  4.7296675E+03
 1.1876358E+01  4.6408003E+03
 1.1896852E+01  4.5472124E+03
 1.1917347E+01  4.4424292E+03
 1.1937840E+01  4.3324233E+03
 1.1958335E+01  4.2052827E+03
 1.1978829E+01  4.0750457E+03
 1.1999323E+01  3.9557463E+03
 1.2019817E+01  3.8547883E+03
 1.2040312E+01  3.7864470E+03
 1.2060805E+01  3.7611401E+03
 1.2081300E+01  3.7722961E+03
 1.2101794E+01  3.8034609E+03
 1.2122288E+01  3.8341326E+03
 1.2142782E+01  3.8585210E+03
 1.2163277E+01  3.8836140E+03
 1.2183770E+01  3.9113936E+03
 1.2204265E+01  3.9447026E+03
 1.2224759E+01  3.9746731E+03
 1.2245253E+01  3.9890039E+03
 1.2265747E+01  3.9829045E+03
 1.2286242E+01  3.9653284E+03
 1.2306735E+01  3.9520674E+03
 1.2327229E+01  3.9638186E+03
 1.2347724E+01  4.0028066E+03
 1.2368217E+01  4.0468337E+03
 1.2388712E+01  4.0813181E+03
 1.2409206E+01  4.1055464E+03
 1.2429700E+01  4.1261699E+03
 1.2450194E+01  4.1521621E+03
 1.2470689E+01  4.1850449E+03
 1.2491182E+01  4.2188184E+03
 1.2511677E+01  4.2444707E+03
 1.2532171E+01  4.2450732E+03
 1.2552665E+01  4.2238101E+03
 1.2573159E+01  4.1906187E+03
 1.2593654E+01  4.1633813E+03
 1.2614147E+01  4.1526636E+03
 1.2634642E+01  4.1663794E+03
 1.2655136E+01  4.1987891E+03
 1.2675630E+01  4.2299375E+03
 1.2696124E+01  4.2437642E+03
 1.2716619E+01  4.2448198E+03
 1.2737112E+01  4.2466392E+03
 1.2757607E+01  4.2582773E+03
 1.2778101E+01  4.2702354E+03
 1.2798594E+01  4.2706787E+03
 1.2819089E+01  4.2573887E+03
 1.2839583E+01  4.2408691E+03
 1.2860077E+01  4.2307407E+03
 1.2880571E+01  4.2376147E+03
 1.2901066E+01  4.2607510E+03
 1.2921559E+01  4.2902480E+03
 1.2942054E+01  4.3216206E+03
 1.2962548E+01  4.3467915E+03
 1.2983042E+01  4.3630869E+03
 1.3003536E+01  4.3736470E+03
 1.3024031E+01  4.3744253E+03
 1.3044524E+01  4.3666099E+03
 1.3065019E+01  4.3515371E+03
 1.3085513E+01  4.3392749E+03
 1.3106007E+01  4.3182954E+03
 1.3126501E+01  4.2796553E+03
 1.3146996E+01  4.2212466E+03
 1.3167489E+01  4.1557739E+03
 1.3187984E+01  4.0940771E+03
 1.3208478E+01  4.0437546E+03
 1.3228971E+01  4.0083252E+03
 1.3249466E+01  3.9901150E+03
 1.3269960E+01  3.9931570E+03
 1.3290454E+01  4.0064441E+03
 1.3310948E+01  4.0187634E+03
 1.3331443E+01  4.0260339E+03
 1.3351936E+01  4.0211553E+03
 1.3372431E+01  4.0192021E+03
 1.3392925E+01  4.0244707E+03
 1.3413419E+01  4.0358059E+03
 1.3433913E+01  4.0536555E+03
 1.3454408E+01  4.0723000E+03
 1.3474901E+01  4.0970576E+03
 1.3495396E+01  4.1229497E+03
 1.3515890E+01  4.1452793E+03
 1.3536384E+01  4.1612026E+03
 1.3556878E+01  4.1694609E+03
 1.3577373E+01  4.1695161E+03
 1.3597867E+01  4.1580767E+03
 1.3618361E+01  4.1397720E+03
 1.3638855E+01  4.1222817E+03
 1.3659349E+01  4.1048853E+03
 1.3679843E+01  4.0910488E+03
 1.3700337E+01  4.0837454E+03
 1.3720832E+01  4.0748066E+03
 1.3741325E+01  4.0555017E+03
 1.3761820E+01  4.0338662E+03
 1.3782314E+01  4.0119556E+03
 1.3802808E+01  3.9921919E+03
 1.3823302E+01  3.9821128E+03
 1.3843797E+01  3.9888879E+03
 1.3864290E+01  4.0025803E+03
 1.3884785E+01  4.0205808E+03
 1.3905279E+01  4.0349348E+03
 1.3925773E+01  4.0307524E+03
 1.3946267E+01  4.0066301E+03
 1.3966762E+01  3.9747114E+03
 1.3987255E+01  3.9485076E+03
 1.4007750E+01  3.9351697E+03
 1.4028244E+01  3.9414014E+03
 1.4048738E+01  3.9614512E+03
 1.4069232E+01  3.9806538E+03
 1.4089726E+01  3.9890813E+03
 1.4110220E+01  3.9881831E+03
 1.4130714E+01  3.9798276E+03
 1.4151209E+01  3.9686716E+03
 1.4171702E+01  3.9582070E+03
 1.4192197E+01  3.9515410E+03
 1.4212691E+01  3.9498679E+03
 1.4233185E+01  3.9494238E+03
 1.4253679E+01  3.9432996E+03
 1.4274174E+01  3.9264744E+03
 1.4294667E+01  3.9033811E+03
 1.4315162E+01  3.8745020E+03
 1.4335656E+01  3.8501616E+03
 1.4356150E+01  3.8322898E+03
 1.4376644E+01  3.8127466E+03
 1.4397139E+01  3.7888191E+03
 1.4417632E+01  3.7564766E+03
 1.4438127E+01  3.7224243E+03
 1.4458621E+01  3.6901978E+03
 1.4479115E+01  3.6663569E+03
 1.4499609E+01  3.6543289E+03
 1.4520103E+01  3.6513025E+03
 1.4540597E+01  3.6497046E+03
 1.4561091E+01  3.6529272E+03
 1.4581586E+01  3.6588591E+03
 1.4602079E+01  3.6644753E+03
 1.4622574E+01  3.6662976E+03
 1.4643068E+01  3.6632683E+03
 1.4663562E+01  3.6558088E+03
 1.4684056E+01  3.6440503E+03
 1.4704551E+01  3.6352163E+03
 1.4725044E+01  3.6357615E+03
 1.4745539E+01  3.6394993E+03
 1.4766033E+01  3.6541450E+03
 1.4786527E+01  3.6772944E+03
 1.4807021E+01  3.6940513E+03
 1.4827516E+01  3.6983975E+03
 1.4848009E+01  3.6892998E+03
 1.4868504E+01  3.6707969E+03
 1.4888998E+01  3.6501997E+03
 1.4909492E+01  3.6335413E+03
 1.4929986E+01  3.6288369E+03
 1.4950480E+01  3.6401941E+03
 1.4970974E+01  3.6617783E+03
 1.4991468E+01  3.6852500E+03
 1.5011963E+01  3.6990571E+03
 1.5032456E+01  3.6952551E+03
 1.5052951E+01  3.6773403E+03
 1.5073445E+01  3.6557219E+03
 1.5093939E+01  3.6416335E+03
 1.5114433E+01  3.6388318E+03
 1.5134928E+01  3.6449761E+03
 1.5155421E+01  3.6565393E+03
 1.5175916E+01  3.6645459E+03
 1.5196410E+01  3.6675054E+03
 1.5216904E+01  3.6556865E+03
 1.5237398E+01  3.6323938E+03
 1.5257893E+01  3.6094409E+03
 1.5278387E+01  3.5951731E+03
 1.5298881E+01  3.5929397E+03
 1.5319375E+01  3.5968679E+03
 1.5339869E+01  3.6045720E+03
 1.5360363E+01  3.6013438E+03
 1.5380857E+01  3.5832324E+03
 1.5401352E+01  3.5567422E+03
 1.5421845E+01  3.5328638E+03
 1.5442340E+01  3.5195479E+03
 1.5462834E+01  3.5140483E+03
 1.5483328E+01  3.5182786E+03
 1.5503822E+01  3.5230552E+03
 1.5524317E+01  3.5287830E+03
 1.5544810E+01  3.5294006E+03
 1.5565305E+01  3.5285164E+03
 1.5585799E+01  3.5317788E+03
 1.5606293E+01  3.5359722E+03
 1.5626787E+01  3.5420920E+03
 1.5647282E+01  3.5495681E+03
 1.5667775E+01  3.5521426E+03
 1.5688270E+01  3.5497061E+03
 1.5708764E+01  3.5408442E+03
 1.5729258E+01  3.5297813E+03
 1.5749752E+01  3.5225476E+03
 1.5770247E+01  3.5207063E+03
 1.5790740E+01  3.5263440E+03
 1.5811234E+01  3.5304150E+03
 1.5831729E+01  3.5293298E+03
 1.5852222E+01  3.5194929E+03
 1.5872717E+01  3.5064438E+03
 1.5893211E+01  3.4947512E+03
 1.5913705E+01  3.4932358E+03
 1.5934199E+01  3.5025020E+03
 1.5954694E+01  3.5136606E+03
 1.5975187E+01  3.5140972E+03
 1.5995682E+01  3.5050649E+03
 1.6016176E+01  3.5390833E+03
 1.6036671E+01  3.5513198E+03
 1.6057163E+01  3.5588904E+03
 1.6077658E+01  3.5622144E+03
 1.6098152E+01  3.5669150E+03
 1.6118647E+01  3.5717251E+03
 1.6139141E+01  3.5771987E+03
 1.6159636E+01  3.5878066E+03
 1.6180130E+01  3.5985803E+03
 1.6200623E+01  3.6061313E+03
 1.6221117E+01  3.6045806E+03
 1.6241611E+01  3.5943499E+03
 1.6262106E+01  3.5785886E+03
 1.6282600E+01  3.5617100E+03
 1.6303095E+01  3.5443472E+03
 1.6323587E+01  3.5305251E+03
 1.6344082E+01  3.5189961E+03
 1.6364576E+01  3.5074270E+03
 1.6385071E+01  3.4997769E+03
 1.6405565E+01  3.4958640E+03
 1.6426060E+01  3.4982183E+03
 1.6446552E+01  3.5040146E+03
 1.6467047E+01  3.5061790E+03
 1.6487541E+01  3.4980249E+03
 1.6508036E+01  3.4814895E+03
 1.6528530E+01  3.4608677E+03
 1.6549025E+01  3.4458245E+03
 1.6569517E+01  3.4346140E+03
 1.6590012E+01  3.4313638E+03
 1.6610506E+01  3.4358870E+03
 1.6631001E+01  3.4449583E+03
 1.6651495E+01  3.4555986E+03
 1.6671989E+01  3.4641042E+03
 1.6692482E+01  3.4643259E+03
 1.6712976E+01  3.4578530E+03
 1.6733471E+01  3.4493225E+03
 1.6753965E+01  3.4392046E+03
 1.6774460E+01  3.4317449E+03
 1.6794954E+01  3.4320349E+03
 1.6815447E+01  3.4342776E+03
 1.6835941E+01  3.4391445E+03
 1.6856436E+01  3.4474424E+03
 1.6876930E+01  3.4527417E+03
 1.6897425E+01  3.4536172E+03
 1.6917919E+01  3.4483982E+03
 1.6938412E+01  3.4395962E+03
 1.6958906E+01  3.4269663E+03
 1.6979401E+01  3.4145542E+03
 1.6999895E+01  3.4066421E+03
 1.7020390E+01  3.4040264E+03
 1.7040884E+01  3.3975901E+03
 1.7061377E+01  3.3884583E+03
 1.7081871E+01  3.3783062E+03
 1.7102365E+01  3.3651887E+03
 1.7122860E+01  3.3493252E+03
 1.7143354E+01  3.3303450E+03
 1.7163849E+01  3.3109473E+03
 1.7184341E+01  3.2973870E+03
 1.7204836E+01  3.2864771E+03
 1.7225330E+01  3.2721765E+03
 1.7245825E+01  3.2573335E+03
 1.7266319E+01  3.2456030E+03
 1.7286814E+01  3.2324534E+03
 1.7307306E+01  3.2213643E+03
 1.7327801E+01  3.2067146E+03
 1.7348295E+01  3.1952854E+03
 1.7368790E+01  3.1930544E+03
 1.7389284E+01  3.1901943E+03
 1.7409779E+01  3.1861968E+03
 1.7430271E+01  3.1857881E+03
 1.7450766E+01  3.1891069E+03
 1.7471260E+01  3.1915876E+03
 1.7491755E+01  3.1920522E+03
 1.7512249E+01  3.1914836E+03
 1.7532743E+01  3.1866182E+03
 1.7553236E+01  3.1788335E+03
 1.7573730E+01  3.1735105E+03
 1.7594225E+01  3.1710125E+03
 1.7614719E+01  3.1736902E+03
 1.7635214E+01  3.1832810E+03
 1.7655708E+01  3.1944446E+03
 1.7676201E+01  3.2017993E+03
 1.7696695E+01  3.2016436E+03
 1.7717190E+01  3.1981279E+03
 1.7737684E+01  3.1997534E+03
 1.7758179E+01  3.2029343E+03
 1.7778673E+01  3.2041375E+03
 1.7799166E+01  3.2072292E+03
 1.7819660E+01  3.2106414E+03
 1.7840155E+01  3.2117939E+03
 1.7860649E+01  3.2102146E+03
 1.7881144E+01  3.2065027E+03
 1.7901638E+01  3.2101440E+03
 1.7922132E+01  3.2198396E+03
 1.7942625E+01  3.2286851E+03
 1.7963120E+01  3.2326528E+03
 1.7983614E+01  3.2345374E+03
 1.8004108E+01  3.2342239E+03
 1.8024603E+01  3.2336794E+03
 1.8045097E+01  3.2315693E+03
 1.8065590E+01  3.2287625E+03
 1.8086084E+01  3.2285713E+03
 1.8106579E+01  3.2259517E+03
 1.8127073E+01  3.2199548E+03
 1.8147568E+01  3.2143816E+03
 1.8168062E+01  3.2109741E+03
 1.8188555E+01  3.2089683E+03
 1.8209049E+01  3.2063777E+03
 1.8229544E+01  3.2054082E+03
 1.8250038E+01  3.2030317E+03
 1.8270533E+01  3.2029651E+03
 1.8291027E+01  3.2056938E+03
 1.8311520E+01  3.2062786E+03
 1.8332014E+01  3.2051482E+03
 1.8352509E+01  3.2041123E+03
 1.8373003E+01  3.2062100E+03
 1.8393497E+01  3.2069226E+03
 1.8413992E+01  3.2064011E+03
 1.8434484E+01  3.2042444E+03
 1.8454979E+01  3.1997419E+03
 1.8475473E+01  3.1972451E+03
 1.8495968E+01  3.1958989E+03
 1.8516462E+01  3.1945874E+03
 1.8536957E+01  3.1941326E+03
 1.8557449E+01  3.1935388E+03
 1.8577944E+01  3.1942378E+03
 1.8598438E+01  3.1959041E+03
 1.8618933E+01  3.1999099E+03
 1.8639427E+01  3.2031121E+03
 1.8659922E+01  3.2070471E+03
 1.8680414E+01  3.2050144E+03
 1.8700909E+01  3.1994421E+03
 1.8721403E+01  3.1899121E+03
 1.8741898E+01  3.1770820E+03
 1.8762392E+01  3.1653503E+03
 1.8782887E+01  3.1581108E+03
 1.8803379E+01  3.1530894E+03
 1.8823874E+01  3.1515923E+03
 1.8844368E+01  3.1491140E+03
 1.8864862E+01  3.1456096E+03
 1.8885357E+01  3.1435244E+03
 1.8905851E+01  3.1411460E+03
 1.8926344E+01  3.1396628E+03
 1.8946838E+01  3.1375588E+03
 1.8967333E+01  3.1317024E+03
 1.8987827E+01  3.1249827E+03
 1.9008322E+01  3.1170134E+03
 1.9028816E+01  3.1101450E+03
 1.9049309E+01  3.1063784E+03
 1.9069803E+01  3.1031003E+03
 1.9090298E+01  3.1002551E+03
 1.9110792E+01  3.1007202E+03
 1.9131287E+01  3.1004526E+03
 1.9151781E+01  3.0982178E+03
 1.9172274E+01  3.0933555E+03
 1.9192768E+01  3.0896807E+03
 1.9213263E+01  3.0877354E+03
 1.9233757E+01  3.0860703E+03
 1.9254251E+01  3.0845354E+03
 1.9274746E+01  3.0812100E+03
 1.9295238E+01  3.0768623E+03
 1.9315733E+01  3.0736187E+03
 1.9336227E+01  3.0733625E+03
 1.9356722E+01  3.0740881E+03
 1.9377216E+01  3.0750459E+03
 1.9397711E+01  3.0749619E+03
 1.9418203E+01  3.0757075E+03
 1.9438698E+01  3.0782527E+03
 1.9459192E+01  3.0798826E+03
 1.9479687E+01  3.0806865E+03
 1.9500181E+01  3.0791196E+03
 1.9520676E+01  3.0764866E+03
 1.9541170E+01  3.0701838E+03
 1.9561663E+01  3.0670535E+03
 1.9582157E+01  3.0653804E+03
 1.9602652E+01  3.0636416E+03
 1.9623146E+01  3.0637278E+03
 1.9643641E+01  3.0632644E+03
 1.9664135E+01  3.0578203E+03
 1.9684628E+01  3.0547161E+03
 1.9705122E+01  3.0520305E+03
 1.9725616E+01  3.0470869E+03
 1.9746111E+01  3.0404661E+03
 1.9766605E+01  3.0347874E+03
 1.9787100E+01  3.0290642E+03
 1.9807592E+01  3.0230500E+03
 1.9828087E+01  3.0156968E+03
 1.9848581E+01  3.0036992E+03
 1.9869076E+01  2.9925388E+03
 1.9889570E+01  2.9853970E+03
 1.9910065E+01  2.9785881E+03
 1.9930557E+01  2.9720566E+03
 1.9951052E+01  2.9659714E+03
 1.9971546E+01  2.9612449E+03
 1.9992041E+01  2.9564983E+03
 2.0012535E+01  2.9489626E+03
 2.0033030E+01  2.9419355E+03
 2.0053522E+01  2.9349548E+03
 2.0074017E+01  2.9287578E+03
 2.0094511E+01  2.9207559E+03
 2.0115005E+01  2.9137920E+03
 2.0135500E+01  2.9079800E+03
 2.0155994E+01  2.9061172E+03
 2.0176487E+01  2.9073691E+03
 2.0196981E+01  2.9113833E+03
 2.0217476E+01  2.9135591E+03
 2.0237970E+01  2.9167700E+03
 2.0258465E+01  2.9179937E+03
 2.0278959E+01  2.9177986E+03
 2.0299452E+01  2.9188391E+03
 2.0319946E+01  2.9194465E+03
 2.0340441E+01  2.9201287E+03
 2.0360935E+01  2.9199768E+03
 2.0381430E+01  2.9176423E+03
 2.0401924E+01  2.9164714E+03
 2.0422417E+01  2.9174998E+03
 2.0442911E+01  2.9172898E+03
 2.0463406E+01  2.9173071E+03
 2.0483900E+01  2.9180598E+03
 2.0504395E+01  2.9196619E+03
 2.0524889E+01  2.9245854E+03
 2.0545382E+01  2.9296917E+03
 2.0565876E+01  2.9321177E+03
 2.0586370E+01  2.9352920E+03
 2.0606865E+01  2.9357986E+03
 2.0627359E+01  2.9343687E+03
 2.0647854E+01  2.9334026E+03
 2.0668346E+01  2.9304641E+03
 2.0688841E+01  2.9262397E+03
 2.0709335E+01  2.9231433E+03
 2.0729830E+01  2.9205083E+03
 2.0750324E+01  2.9209939E+03
 2.0770819E+01  2.9207173E+03
 2.0791311E+01  2.9211904E+03
 2.0811806E+01  2.9194163E+03
 2.0832300E+01  2.9172683E+03
 2.0852795E+01  2.9169412E+03
 2.0873289E+01  2.9179570E+03
 2.0893784E+01  2.9198591E+03
 2.0914276E+01  2.9175300E+03
 2.0934771E+01  2.9159092E+03
 2.0955265E+01  2.9152092E+03
 2.0975760E+01  2.9136475E+03
 2.0996254E+01  2.9126257E+03
 2.1016748E+01  2.9165042E+03
 2.1037241E+01  2.9178467E+03
 2.1057735E+01  2.9148428E+03
 2.1078230E+01  2.9162205E+03
 2.1098724E+01  2.9205303E+03
 2.1119219E+01  2.9205894E+03
 2.1139713E+01  2.9200657E+03
 2.1160206E+01  2.9188848E+03
 2.1180700E+01  2.9161938E+03
 2.1201195E+01  2.9127253E+03
 2.1221689E+01  2.9104263E+03
 2.1242184E+01  2.9097800E+03
 2.1262678E+01  2.9073303E+03
 2.1283173E+01  2.9038865E+03
 2.1303665E+01  2.9003062E+03
 2.1324160E+01  2.8972830E+03
 2.1344654E+01  2.8950688E+03
 2.1365149E+01  2.8928040E+03
 2.1385643E+01  2.8903176E+03
 2.1406137E+01  2.8868130E+03
 2.1426630E+01  2.8830261E+03
 2.1447124E+01  2.8812661E+03
 2.1467619E+01  2.8806648E+03
 2.1488113E+01  2.8786790E+03
 2.1508608E+01  2.8759133E+03
 2.1529102E+01  2.8718445E+03
 2.1549595E+01  2.8679250E+03
 2.1570089E+01  2.8653965E+03
 2.1590584E+01  2.8641821E+03
 2.1611078E+01  2.8628469E+03
 2.1631573E+01  2.8579548E+03
 2.1652067E+01  2.8504805E+03
 2.1672560E+01  2.8461062E+03
 2.1693054E+01  2.8417219E+03
 2.1713549E+01  2.8364622E+03
 2.1734043E+01  2.8312361E+03
 2.1754538E+01  2.8262754E+03
 2.1775032E+01  2.8244395E+03
 2.1795525E+01  2.8229592E+03
 2.1816019E+01  2.8218345E+03
 2.1836514E+01  2.8219678E+03
 2.1857008E+01  2.8217366E+03
 2.1877502E+01  2.8223069E+03
 2.1897997E+01  2.8179233E+03
 2.1918489E+01  2.8118105E+03
 2.1938984E+01  2.8038760E+03
 2.1959478E+01  2.7923777E+03
 2.1979973E+01  2.7774395E+03
 2.2000467E+01  2.7656702E+03
 2.2020962E+01  2.7580166E+03
 2.2041454E+01  2.7518621E+03
 2.2061949E+01  2.7435840E+03
 2.2082443E+01  2.7338784E+03
 2.2102938E+01  2.7231335E+03
 2.2123432E+01  2.7125789E+03
 2.2143927E+01  2.7053621E+03
 2.2164419E+01  2.6964377E+03
 2.2184914E+01  2.6959875E+03
 2.2205408E+01  2.7136951E+03
 2.2225903E+01  2.7198604E+03
 2.2246397E+01  2.7230649E+03
 2.2266891E+01  2.7269558E+03
 2.2287384E+01  2.7290674E+03
 2.2307878E+01  2.7279133E+03
 2.2328373E+01  2.7280183E+03
 2.2348867E+01  2.7283171E+03
 2.2369362E+01  2.7267922E+03
 2.2389856E+01  2.7263770E+03
 2.2410349E+01  2.7281411E+03
 2.2430843E+01  2.7293867E+03
 2.2451338E+01  2.7264636E+03
 2.2471832E+01  2.7279678E+03
 2.2492327E+01  2.7298110E+03
 2.2512821E+01  2.7278103E+03
 2.2533314E+01  2.7281152E+03
 2.2553808E+01  2.7290996E+03
 2.2574303E+01  2.7280188E+03
 2.2594797E+01  2.7251912E+03
 2.2615292E+01  2.7246460E+03
 2.2635786E+01  2.7230742E+03
 2.2656279E+01  2.7219529E+03
 2.2676773E+01  2.7201943E+03
 2.2697268E+01  2.7167622E+03
 2.2717762E+01  2.7122153E+03
 2.2738256E+01  2.7105229E+03
 2.2758751E+01  2.7092998E+03
 2.2779243E+01  2.7085249E+03
 2.2799738E+01  2.7056367E+03
 2.2820232E+01  2.7038079E+03
 2.2840727E+01  2.7031951E+03
 2.2861221E+01  2.7020005E+03
 2.2881716E+01  2.7018596E+03
 2.2902208E+01  2.7007412E+03
 2.2922703E+01  2.6982761E+03
 2.2943197E+01  2.6963521E+03
 2.2963692E+01  2.6951765E+03
 2.2984186E+01  2.6938206E+03
 2.3004681E+01  2.6924514E+03
 2.3025175E+01  2.6932241E+03
 2.3045668E+01  2.6956274E+03
 2.3066162E+01  2.6966006E+03
 2.3086657E+01  2.6959314E+03
 2.3107151E+01  2.6929097E+03
 2.3127645E+01  2.6911467E+03
 2.3148140E+01  2.6895522E+03
 2.3168633E+01  2.6891973E+03
 2.3189127E+01  2.6900239E+03
 2.3209621E+01  2.6898604E+03
 2.3230116E+01  2.6889912E+03
 2.3250610E+01  2.6897095E+03
 2.3271105E+01  2.6731145E+03
 2.3291597E+01  2.6635920E+03
 2.3312092E+01  2.6771160E+03
 2.3332586E+01  2.6791389E+03
 2.3353081E+01  2.6815005E+03
 2.3373575E+01  2.6810591E+03
 2.3394070E+01  2.6806873E+03
 2.3414562E+01  2.6802007E+03
 2.3435057E+01  2.6783606E+03
 2.3455551E+01  2.6799812E+03
 2.3476046E+01  2.6838987E+03
 2.3496540E+01  2.6833176E+03
 2.3517035E+01  2.6822100E+03
 2.3537527E+01  2.6813948E+03
 2.3558022E+01  2.6829006E+03
 2.3578516E+01  2.6834233E+03
 2.3599010E+01  2.6812913E+03
 2.3619505E+01  2.6783982E+03
 2.3639999E+01  2.6756677E+03
 2.3660492E+01  2.6757654E+03
 2.3680986E+01  2.6743875E+03
 2.3701481E+01  2.6737183E+03
 2.3721975E+01  2.6734678E+03
 2.3742470E+01  2.6734148E+03
 2.3762964E+01  2.6737822E+03
 2.3783457E+01  2.6760435E+03
 2.3803951E+01  2.6754136E+03
 2.3824446E+01  2.6745146E+03
 2.3844940E+01  2.6740679E+03
 2.3865435E+01  2.6717710E+03
 2.3885929E+01  2.6694900E+03
 2.3906422E+01  2.6673899E+03
 2.3926916E+01  2.6653931E+03
 2.3947411E+01  2.6642930E+03
 2.3967905E+01  2.6614863E+03
 2.3988400E+01  2.6607849E+03
 2.4008894E+01  2.6615903E+03
 2.4029387E+01  2.6622278E+03
 2.4049881E+01  2.6604888E+03
 2.4070375E+01  2.6586782E+03
 2.4090870E+01  2.6574417E+03
 2.4111364E+01  2.6592632E+03
 2.4131859E+01  2.6577222E+03
 2.4152351E+01  2.6531638E+03
 2.4172846E+01  2.6500195E+03
 2.4193340E+01  2.6504343E+03
 2.4213835E+01  2.6507776E+03
 2.4234329E+01  2.6489153E+03
 2.4254824E+01  2.6447751E+03
 2.4275316E+01  2.6418848E+03
 2.4295811E+01  2.6416372E+03
 2.4316305E+01  2.6415115E+03
 2.4336800E+01  2.6400554E+03
 2.4357294E+01  2.6381062E+03
 2.4377789E+01  2.6360032E+03
 2.4398281E+01  2.6359058E+03
 2.4418776E+01  2.6345068E+03
 2.4439270E+01  2.6311235E+03
 2.4459764E+01  2.6291130E+03
 2.4480259E+01  2.6290396E+03
 2.4500753E+01  2.6271816E+03
 2.4521246E+01  2.6241807E+03
 2.4541740E+01  2.6217478E+03
 2.4562235E+01  2.6189343E+03
 2.4582729E+01  2.6189768E+03
 2.4603224E+01  2.6170112E+03
 2.4623718E+01  2.6145537E+03
 2.4644213E+01  2.6128186E+03
 2.4664705E+01  2.6119502E+03
 2.4685200E+01  2.6104282E+03
 2.4705694E+01  2.6073171E+03
 2.4726189E+01  2.6036628E+03
 2.4746683E+01  2.6009937E+03
 2.4767178E+01  2.6011604E+03
 2.4787670E+01  2.5993396E+03
 2.4808165E+01  2.5971025E+03
 2.4828659E+01  2.5953894E+03
 2.4849154E+01  2.5951436E+03
 2.4869648E+01  2.5939814E+03
 2.4890142E+01  2.5924692E+03
 2.4910635E+01  2.5900774E+03
 2.4931129E+01  2.5904978E+03
 2.4951624E+01  2.5893723E+03
 2.4972118E+01  2.5870645E+03
 2.4992613E+01  2.5869822E+03
 2.5013107E+01  2.5865784E+03
 2.5033600E+01  2.5849104E+03
 2.5054094E+01  2.5810625E+03
 2.5074589E+01  2.5782317E+03
 2.5095083E+01  2.5752576E+03
 2.5115578E+01  2.5734771E+03
 2.5136072E+01  2.5733235E+03
 2.5156565E+01  2.5714736E+03
 2.5177059E+01  2.5697073E+03
 2.5197554E+01  2.5694790E+03
 2.5218048E+01  2.5686270E+03
 2.5238543E+01  2.5672822E+03
 2.5259037E+01  2.5660400E+03
 2.5279530E+01  2.5637310E+03
 2.5300024E+01  2.5618625E+03
 2.5320518E+01  2.5618730E+03
 2.5341013E+01  2.5610859E+03
 2.5361507E+01  2.5586262E+03
 2.5382002E+01  2.5564307E+03
 2.5402494E+01  2.5566472E+03
 2.5422989E+01  2.5547441E+03
 2.5443483E+01  2.5536011E+03
 2.5463978E+01  2.5510342E+03
 2.5484472E+01  2.5519614E+03
 2.5504967E+01  2.5512302E+03
 2.5525459E+01  2.5494187E+03
 2.5545954E+01  2.5487407E+03
 2.5566448E+01  2.5479219E+03
 2.5586943E+01  2.5465706E+03
 2.5607437E+01  2.5435117E+03
 2.5627932E+01  2.5433274E+03
 2.5648424E+01  2.5426416E+03
 2.5668919E+01  2.5423562E+03
 2.5689413E+01  2.5408328E+03
 2.5709908E+01  2.5413591E+03
 2.5730402E+01  2.5425747E+03
 2.5750896E+01  2.5411543E+03
 2.5771389E+01  2.5385957E+03
 2.5791883E+01  2.5374065E+03
 2.5812378E+01  2.5341240E+03
 2.5832872E+01  2.5321003E+03
 2.5853367E+01  2.5323413E+03
 2.5873861E+01  2.5340728E+03
 2.5894354E+01  2.5351536E+03
 2.5914848E+01  2.5340344E+03
 2.5935343E+01  2.5337141E+03
 2.5955837E+01  2.5347751E+03
 2.5976332E+01  2.5323694E+03
 2.5996826E+01  2.5292031E+03
 2.6017319E+01  2.5315037E+03
 2.6037813E+01  2.5312861E+03
 2.6058308E+01  2.5287407E+03
 2.6078802E+01  2.5291423E+03
 2.6099297E+01  2.5277224E+03
 2.6119791E+01  2.5281489E+03
 2.6140284E+01  2.5275845E+03
 2.6160778E+01  2.5243740E+03
 2.6181273E+01  2.5234856E+03
 2.6201767E+01  2.5240464E+03
 2.6222261E+01  2.5248269E+03
 2.6242756E+01  2.5249312E+03
 2.6263248E+01  2.5231047E+03
 2.6283743E+01  2.5230437E+03
 2.6304237E+01  2.5226665E+03
 2.6324732E+01  2.5236152E+03
 2.6345226E+01  2.5204888E+03
 2.6365721E+01  2.5180889E+03
 2.6386215E+01  2.5167014E+03
 2.6406708E+01  2.5178220E+03
 2.6427202E+01  2.5184841E+03
 2.6447697E+01  2.5165242E+03
 2.6468191E+01  2.5131152E+03
 2.6488686E+01  2.5103401E+03
 2.6509180E+01  2.5098652E+03
 2.6529673E+01  2.5097349E+03
 2.6550167E+01  2.5098918E+03
 2.6570662E+01  2.5085042E+03
 2.6591156E+01  2.5066150E+03
 2.6611650E+01  2.5027314E+03
 2.6632145E+01  2.5019172E+03
 2.6652637E+01  2.5015725E+03
 2.6673132E+01  2.4997080E+03
 2.6693626E+01  2.4993809E+03
 2.6714121E+01  2.4983823E+03
 2.6734615E+01  2.4960879E+03
 2.6755110E+01  2.4967166E+03
 2.6775602E+01  2.4965432E+03
 2.6796097E+01  2.4940383E+03
 2.6816591E+01  2.4908828E+03
 2.6837086E+01  2.4897239E+03
 2.6857580E+01  2.4906584E+03
 2.6878075E+01  2.4889919E+03
 2.6898567E+01  2.4880117E+03
 2.6919062E+01  2.4876956E+03
 2.6939556E+01  2.4841450E+03
 2.6960051E+01  2.4833171E+03
 2.6980545E+01  2.4838142E+03
 2.7001040E+01  2.4829324E+03
 2.7021532E+01  2.4814226E+03
 2.7042027E+01  2.4800474E+03
 2.7062521E+01  2.4792778E+03
 2.7083015E+01  2.4756570E+03
 2.7103510E+01  2.4740203E+03
 2.7124004E+01  2.4745549E+03
 2.7144497E+01  2.4726611E+03
 2.7164991E+01  2.4694348E+03
 2.7185486E+01  2.4660056E+03
 2.7205980E+01  2.4652915E+03
 2.7226475E+01  2.4650415E+03
 2.7246969E+01  2.4665305E+03
 2.7267462E+01  2.4657917E+03
 2.7287956E+01  2.4656274E+03
 2.7308451E+01  2.4624365E+03
 2.7328945E+01  2.4603325E+03
 2.7349440E+01  2.4586113E+03
 2.7369934E+01  2.4570627E+03
 2.7390427E+01  2.4534854E+03
 2.7410921E+01  2.4531995E+03
 2.7431416E+01  2.4544006E+03
 2.7451910E+01  2.4556750E+03
 2.7472404E+01  2.4551802E+03
 2.7492899E+01  2.4535383E+03
 2.7513391E+01  2.4525481E+03
 2.7533886E+01  2.4534363E+03
 2.7554380E+01  2.4510398E+03
 2.7574875E+01  2.4493350E+03
 2.7595369E+01  2.4473787E+03
 2.7615864E+01  2.4469778E+03
 2.7636356E+01  2.4479299E+03
 2.7656851E+01  2.4468997E+03
 2.7677345E+01  2.4465881E+03
 2.7697840E+01  2.4439780E+03
 2.7718334E+01  2.4414890E+03
 2.7738829E+01  2.4398206E+03
 2.7759321E+01  2.4381868E+03
 2.7779816E+01  2.4382844E+03
 2.7800310E+01  2.4371001E+03
 2.7820805E+01  2.4344028E+03
 2.7841299E+01  2.4308245E+03
 2.7861794E+01  2.4310703E+03
 2.7882286E+01  2.4302720E+03
 2.7902781E+01  2.4283733E+03
 2.7923275E+01  2.4278662E+03
 2.7943769E+01  2.4270005E+03
 2.7964264E+01  2.4265032E+03
 2.7984758E+01  2.4250854E+03
 2.8005253E+01  2.4237112E+03
 2.8025745E+01  2.4238757E+03
 2.8046240E+01  2.4229390E+03
 2.8066734E+01  2.4236377E+03
 2.8087229E+01  2.4191318E+03
 2.8107723E+01  2.4155288E+03
 2.8128218E+01  2.4095725E+03
 2.8148710E+01  2.4060371E+03
 2.8169205E+01  2.3992483E+03
 2.8189699E+01  2.3906021E+03
 2.8210194E+01  2.3834321E+03
 2.8230688E+01  2.3761428E+03
 2.8251183E+01  2.3675830E+03
 2.8271675E+01  2.3591238E+03
 2.8292170E+01  2.3469890E+03
 2.8312664E+01  2.3363813E+03
 2.8333158E+01  2.3275547E+03
 2.8353653E+01  2.3161099E+03
 2.8374147E+01  2.3050229E+03
 2.8394640E+01  2.2998469E+03
 2.8415134E+01  2.3197454E+03
 2.8435629E+01  2.3294453E+03
 2.8456123E+01  2.3357800E+03
 2.8476618E+01  2.3396475E+03
 2.8497112E+01  2.3427539E+03
 2.8517605E+01  2.3449888E+03
 2.8538099E+01  2.3470295E+03
 2.8558594E+01  2.3494944E+03
 2.8579088E+01  2.3507515E+03
 2.8599583E+01  2.3515374E+03
 2.8620077E+01  2.3533315E+03
 2.8640570E+01  2.3552754E+03
 2.8661064E+01  2.3541292E+03
 2.8681559E+01  2.3538379E+03
 2.8702053E+01  2.3520959E+03
 2.8722548E+01  2.3527583E+03
 2.8743042E+01  2.3549133E+03
 2.8763535E+01  2.3563145E+03
 2.8784029E+01  2.3593518E+03
 2.8804523E+01  2.3573147E+03
 2.8825018E+01  2.3563489E+03
 2.8845512E+01  2.3564985E+03
 2.8866007E+01  2.3559221E+03
 2.8886499E+01  2.3575664E+03
 2.8906994E+01  2.3553682E+03
 2.8927488E+01  2.3562295E+03
 2.8947983E+01  2.3597388E+03
 2.8968477E+01  2.3613757E+03
 2.8988972E+01  2.3600757E+03
 2.9009464E+01  2.3560127E+03
 2.9029959E+01  2.3570928E+03
 2.9050453E+01  2.3568506E+03
 2.9070948E+01  2.3551345E+03
 2.9091442E+01  2.3552742E+03
 2.9111937E+01  2.3543789E+03
 2.9132429E+01  2.3510820E+03
 2.9152924E+01  2.3512039E+03
 2.9173418E+01  2.3544819E+03
 2.9193913E+01  2.3554570E+03
 2.9214407E+01  2.3529695E+03
 2.9234901E+01  2.3508730E+03
 2.9255394E+01  2.3514324E+03
 2.9275888E+01  2.3519263E+03
 2.9296383E+01  2.3512219E+03
 2.9316877E+01  2.3475200E+03
 2.9337372E+01  2.3453638E+03
 2.9357866E+01  2.3477803E+03
 2.9378359E+01  2.3504114E+03
 2.9398853E+01  2.3498091E+03
 2.9419348E+01  2.3446145E+03
 2.9439842E+01  2.3423352E+03
 2.9460337E+01  2.3373757E+03
 2.9480831E+01  2.3331033E+03
 2.9501324E+01  2.3258975E+03
 2.9521818E+01  2.3154636E+03
 2.9542313E+01  2.3035300E+03
 2.9562807E+01  2.2897878E+03
 2.9583302E+01  2.2724231E+03
 2.9603796E+01  2.2891948E+03
 2.9624289E+01  2.2979241E+03
 2.9644783E+01  2.3036248E+03
 2.9665277E+01  2.3074470E+03
 2.9685772E+01  2.3087068E+03
 2.9706266E+01  2.3091423E+03
 2.9726761E+01  2.3097444E+03
 2.9747255E+01  2.3097095E+03
 2.9767748E+01  2.3110188E+03
 2.9788242E+01  2.3144873E+03
 2.9808737E+01  2.3156516E+03
 2.9829231E+01  2.3134707E+03
 2.9849726E+01  2.3096362E+03
 2.9870220E+01  2.3069041E+03
 2.9890713E+01  2.3076377E+03
 2.9911207E+01  2.3053333E+03
 2.9931702E+01  2.3042515E+03
 2.9952196E+01  2.3059851E+03
 2.9972691E+01  2.3048989E+03
 2.9993185E+01  2.3059229E+03
 3.0013678E+01  2.3049158E+03
 3.0034172E+01  2.3058992E+03
 3.0054667E+01  2.3064353E+03
 3.0075161E+01  2.3067156E+03
 3.0095655E+01  2.3028931E+03
 3.0116150E+01  2.2994966E+03
 3.0136642E+01  2.3003508E+03
 3.0157137E+01  2.3001702E+03
 3.0177631E+01  2.2983789E+03
 3.0198126E+01  2.2969043E+03
 3.0218620E+01  2.2982134E+03
 3.0239115E+01  2.2981770E+03
 3.0259607E+01  2.2967283E+03
 3.0280102E+01  2.2957693E+03
 3.0300596E+01  2.2967429E+03
 3.0321091E+01  2.2990100E+03
 3.0341585E+01  2.2968286E+03
 3.0362080E+01  2.2954539E+03
 3.0382572E+01  2.2963606E+03
 3.0403067E+01  2.2968931E+03
 3.0423561E+01  2.2968047E+03
 3.0444056E+01  2.2943569E+03
 3.0464550E+01  2.3020413E+03
 3.0485044E+01  2.2936768E+03
 3.0505537E+01  2.2855520E+03
 3.0526031E+01  2.2872725E+03
 3.0546526E+01  2.2944634E+03
 3.0567020E+01  2.2891252E+03
 3.0587515E+01  2.2865542E+03
 3.0608009E+01  2.2850845E+03
 3.0628502E+01  2.2835488E+03
 3.0648996E+01  2.2838281E+03
 3.0669491E+01  2.2869709E+03
 3.0689985E+01  2.2857908E+03
 3.0710480E+01  2.2812205E+03
 3.0730974E+01  2.2803433E+03
 3.0751467E+01  2.2808872E+03
 3.0771961E+01  2.2820732E+03
 3.0792456E+01  2.2714561E+03
 3.0812950E+01  2.2775605E+03
 3.0833445E+01  2.2793628E+03
 3.0853939E+01  2.2790710E+03
 3.0874432E+01  2.2778933E+03
 3.0894926E+01  2.2757910E+03
 3.0915421E+01  2.2752883E+03
 3.0935915E+01  2.2745403E+03
 3.0956409E+01  2.2735986E+03
 3.0976904E+01  2.2736206E+03
 3.0997396E+01  2.2745596E+03
 3.1017891E+01  2.2732917E+03
 3.1038385E+01  2.2730352E+03
 3.1058880E+01  2.2729607E+03
 3.1079374E+01  2.2751545E+03
 3.1099869E+01  2.2762891E+03
 3.1120361E+01  2.2723130E+03
 3.1140856E+01  2.2694604E+03
 3.1161350E+01  2.2693643E+03
 3.1181845E+01  2.2702048E+03
 3.1202339E+01  2.2710898E+03
 3.1222834E+01  2.2665713E+03
 3.1243326E+01  2.2648220E+03
 3.1263821E+01  2.2653943E+03
 3.1284315E+01  2.2691775E+03
 3.1304810E+01  2.2650671E+03
 3.1325304E+01  2.2630020E+03
 3.1345798E+01  2.2646230E+03
 3.1366291E+01  2.2630039E+03
 3.1386786E+01  2.2610703E+03
 3.1407280E+01  2.2625259E+03
 3.1427774E+01  2.2636938E+03
 3.1448269E+01  2.2622114E+03
 3.1468763E+01  2.2593569E+03
 3.1489258E+01  2.2600767E+03
 3.1509750E+01  2.2597910E+03
 3.1530245E+01  2.2588418E+03
 3.1550739E+01  2.2589382E+03
 3.1571234E+01  2.2568718E+03
 3.1591728E+01  2.2545464E+03
 3.1612223E+01  2.2551628E+03
 3.1632715E+01  2.2548191E+03
 3.1653210E+01  2.2570132E+03
 3.1673704E+01  2.2560051E+03
 3.1694199E+01  2.2557065E+03
 3.1714693E+01  2.2557820E+03
 3.1735188E+01  2.2565835E+03
 3.1755680E+01  2.2575520E+03
 3.1776175E+01  2.2542241E+03
 3.1796669E+01  2.2512551E+03
 3.1817163E+01  2.2542749E+03
 3.1837658E+01  2.2525334E+03
 3.1858152E+01  2.2489890E+03
 3.1878645E+01  2.2451421E+03
 3.1899139E+01  2.2470703E+03
 3.1919634E+01  2.2299895E+03
 3.1940128E+01  2.2103818E+03
 3.1960623E+01  2.2325166E+03
 3.1981117E+01  2.2363723E+03
 3.2001610E+01  2.2403794E+03
 3.2022106E+01  2.2400730E+03
 3.2042599E+01  2.2401880E+03
 3.2063091E+01  2.2387708E+03
 3.2083588E+01  2.2374900E+03
 3.2104080E+01  2.2382065E+03
 3.2124577E+01  2.2416902E+03
 3.2145069E+01  2.2388137E+03
 3.2165565E+01  2.2396599E+03
 3.2186058E+01  2.2362361E+03
 3.2206551E+01  2.2338870E+03
 3.2227047E+01  2.2347715E+03
 3.2247540E+01  2.2339141E+03
 3.2268036E+01  2.2359985E+03
 3.2288528E+01  2.2358098E+03
 3.2309021E+01  2.2341555E+03
 3.2329517E+01  2.2324810E+03
 3.2350010E+01  2.2310767E+03
 3.2370506E+01  2.2304319E+03
 3.2390999E+01  2.2289893E+03
 3.2411495E+01  2.2274050E+03
 3.2431988E+01  2.2306160E+03
 3.2452480E+01  2.2331721E+03
 3.2472977E+01  2.2312261E+03
 3.2493469E+01  2.2290693E+03
 3.2513966E+01  2.2283689E+03
 3.2534458E+01  2.2254612E+03
 3.2554951E+01  2.2252969E+03
 3.2575447E+01  2.2272668E+03
 3.2595940E+01  2.2299805E+03
 3.2616436E+01  2.2289641E+03
 3.2636929E+01  2.2292798E+03
 3.2657425E+01  2.2296011E+03
 3.2677917E+01  2.2291160E+03
 3.2698410E+01  2.2257319E+03
 3.2718906E+01  2.2257236E+03
 3.2739399E+01  2.2256836E+03
 3.2759895E+01  2.2287983E+03
 3.2780388E+01  2.2281289E+03
 3.2800880E+01  2.2279753E+03
 3.2821377E+01  2.2315789E+03
 3.2841869E+01  2.2302117E+03
 3.2862366E+01  2.2256650E+03
 3.2882858E+01  2.2231045E+03
 3.2903355E+01  2.2237686E+03
 3.2923847E+01  2.2272725E+03
 3.2944340E+01  2.2282700E+03
 3.2964836E+01  2.2305476E+03
 3.2985329E+01  2.2314995E+03
 3.3005825E+01  2.2279541E+03
 3.3026318E+01  2.2253899E+03
 3.3046810E+01  2.2251050E+03
 3.3067307E+01  2.2271538E+03
 3.3087799E+01  2.2270833E+03
 3.3108295E+01  2.2275630E+03
 3.3128788E+01  2.2303438E+03
 3.3149284E+01  2.2314106E+03
 3.3169777E+01  2.2330037E+03
 3.3190269E+01  2.2320969E+03
 3.3210766E+01  2.2273950E+03
 3.3231258E+01  2.2270710E+03
 3.3251755E+01  2.2289045E+03
 3.3272247E+01  2.2273186E+03
 3.3292744E+01  2.2283071E+03
 3.3313236E+01  2.2269092E+03
 3.3333729E+01  2.2256145E+03
 3.3354225E+01  2.2270051E+03
 3.3374718E+01  2.2309861E+03
 3.3395214E+01  2.2277183E+03
 3.3415707E+01  2.2260603E+03
 3.3436199E+01  2.2266262E+03
 3.3456696E+01  2.2282859E+03
 3.3477188E+01  2.2264050E+03
 3.3497684E+01  2.2239260E+03
 3.3518177E+01  2.2276936E+03
 3.3538673E+01  2.2246106E+03
 3.3559166E+01  2.2248035E+03
 3.3579659E+01  2.2253904E+03
 3.3600155E+01  2.2247432E+03
 3.3620647E+01  2.2230535E+03
 3.3641144E+01  2.2258901E+03
 3.3661636E+01  2.2244966E+03
 3.3682129E+01  2.2230981E+03
 3.3702625E+01  2.2208679E+03
 3.3723118E+01  2.2195762E+03
 3.3743614E+01  2.2201367E+03
 3.3764107E+01  2.2207827E+03
 3.3784603E+01  2.2220625E+03
 3.3805096E+01  2.2259629E+03
 3.3825588E+01  2.2265374E+03
 3.3846085E+01  2.2285020E+03
 3.3866577E+01  2.2266531E+03
 3.3887074E+01  2.2252329E+03
 3.3907566E+01  2.2279783E+03
 3.3928059E+01  2.2312852E+03
 3.3948555E+01  2.2315872E+03
 3.3969048E+01  2.2279448E+03
 3.3989544E+01  2.2314304E+03
 3.4010036E+01  2.2375500E+03
 3.4030533E+01  2.2413984E+03
 3.4051025E+01  2.2313696E+03
 3.4071518E+01  2.2175188E+03
 3.4092014E+01  2.2362603E+03
 3.4112507E+01  2.2365208E+03
 3.4133003E+01  2.2390415E+03
 3.4153496E+01  2.2412385E+03
 3.4173988E+01  2.2384775E+03
 3.4194485E+01  2.2369453E+03
 3.4214977E+01  2.2367805E+03
 3.4235474E+01  2.2362178E+03
 3.4255966E+01  2.2349929E+03
 3.4276463E+01  2.2400330E+03
 3.4296955E+01  2.2416042E+03
 3.4317448E+01  2.2390740E+03
 3.4337944E+01  2.2383955E+03
 3.4358437E+01  2.2341426E+03
 3.4378933E+01  2.2359795E+03
 3.4399426E+01  2.2383201E+03
 3.4419918E+01  2.2353477E+03
 3.4440414E+01  2.2344585E+03
 3.4460907E+01  2.2305205E+03
 3.4481403E+01  2.2320962E+03
 3.4501896E+01  2.2296228E+03
 3.4522392E+01  2.2319609E+03
 3.4542885E+01  2.2320732E+03
 3.4563377E+01  2.2322976E+03
 3.4583874E+01  2.2298406E+03
 3.4604366E+01  2.2258474E+03
 3.4624863E+01  2.2215195E+03
 3.4645355E+01  2.2207778E+03
 3.4665848E+01  2.2084849E+03
 3.4686344E+01  2.1851218E+03
 3.4706837E+01  2.1344058E+03
 3.4727333E+01  2.1277522E+03
 3.4747826E+01  2.1174258E+03
 3.4768322E+01  2.1067234E+03
 3.4788815E+01  2.0980686E+03
 3.4809307E+01  2.1174448E+03
 3.4829803E+01  2.1274307E+03
 3.4850296E+01  2.1350366E+03
 3.4870792E+01  2.1400464E+03
 3.4891285E+01  2.1412131E+03
 3.4911781E+01  2.1450781E+03
 3.4932274E+01  2.1412878E+03
 3.4952766E+01  2.1479783E+03
 3.4973263E+01  2.1549392E+03
 3.4993755E+01  2.1539978E+03
 3.5014252E+01  2.1578579E+03
 3.5034744E+01  2.1580344E+03
 3.5055237E+01  2.1535688E+03
 3.5075733E+01  2.1574302E+03
 3.5096226E+01  2.1611147E+03
 3.5116722E+01  2.1667778E+03
 3.5137215E+01  2.1633171E+03
 3.5157711E+01  2.1649915E+03
 3.5178204E+01  2.1678215E+03
 3.5198696E+01  2.1716370E+03
 3.5219193E+01  2.1708621E+03
 3.5239685E+01  2.1692905E+03
 3.5260181E+01  2.1696992E+03
 3.5280674E+01  2.1710239E+03
 3.5301167E+01  2.1681255E+03
 3.5321663E+01  2.1715764E+03
 3.5342155E+01  2.1720393E+03
 3.5362652E+01  2.1697283E+03
 3.5383144E+01  2.1655723E+03
 3.5403641E+01  2.1638159E+03
 3.5424133E+01  2.1643584E+03
 3.5444626E+01  2.1645610E+03
 3.5465122E+01  2.1643577E+03
 3.5485615E+01  2.1664265E+03
 3.5506111E+01  2.1675571E+03
 3.5526604E+01  2.1667109E+03
 3.5547096E+01  2.1702363E+03
 3.5567593E+01  2.1648083E+03
 3.5588085E+01  2.1610115E+03
 3.5608582E+01  2.1585466E+03
 3.5629074E+01  2.1575557E+03
 3.5649570E+01  2.1566560E+03
 3.5670063E+01  2.1605977E+03
 3.5690556E+01  2.1580400E+03
 3.5711052E+01  2.1564250E+03
 3.5731544E+01  2.1580398E+03
 3.5752041E+01  2.1628735E+03
 3.5772533E+01  2.1606665E+03
 3.5793026E+01  2.1563967E+03
 3.5813522E+01  2.1552900E+03
 3.5834015E+01  2.1582244E+03
 3.5854511E+01  2.1565950E+03
 3.5875004E+01  2.1536816E+03
 3.5895500E+01  2.1534338E+03
 3.5915993E+01  2.1541804E+03
 3.5936485E+01  2.1563171E+03
 3.5956982E+01  2.1547803E+03
 3.5977474E+01  2.1502000E+03
 3.5997971E+01  2.1494778E+03
 3.6018463E+01  2.1549553E+03
 3.6038956E+01  2.1457483E+03
 3.6059452E+01  2.1454746E+03
 3.6079945E+01  2.1460378E+03
 3.6100441E+01  2.1405593E+03
 3.6120934E+01  2.1456372E+03
 3.6141430E+01  2.1487705E+03
 3.6161922E+01  2.1444700E+03
 3.6182415E+01  2.1496936E+03
 3.6202911E+01  2.1479097E+03
 3.6223404E+01  2.1491851E+03
 3.6243900E+01  2.1473005E+03
 3.6264393E+01  2.1442659E+03
 3.6284885E+01  2.1433303E+03
 3.6305382E+01  2.1435298E+03
 3.6325874E+01  2.1348652E+03
 3.6346371E+01  2.1370955E+03
 3.6366863E+01  2.1432698E+03
 3.6387360E+01  2.1419812E+03
 3.6407852E+01  2.1385393E+03
 3.6428345E+01  2.1378618E+03
 3.6448841E+01  2.1342759E+03
 3.6469334E+01  2.1298035E+03
 3.6489830E+01  2.1303147E+03
 3.6510323E+01  2.1343242E+03
 3.6530819E+01  2.1344500E+03
 3.6551311E+01  2.1296292E+03
 3.6571804E+01  2.1323174E+03
 3.6592300E+01  2.1306572E+03
 3.6612793E+01  2.1293525E+03
 3.6633289E+01  2.1293936E+03
 3.6653782E+01  2.1318733E+03
 3.6674274E+01  2.1271357E+03
 3.6694771E+01  2.1115623E+03
 3.6715263E+01  2.1292554E+03
 3.6735760E+01  2.1307185E+03
 3.6756252E+01  2.1292661E+03
 3.6776749E+01  2.1315608E+03
 3.6797241E+01  2.1266167E+03
 3.6817734E+01  2.1249424E+03
 3.6838230E+01  2.1247639E+03
 3.6858723E+01  2.1232451E+03
 3.6879219E+01  2.1232917E+03
 3.6899712E+01  2.1180437E+03
 3.6920204E+01  2.1143533E+03
 3.6940701E+01  2.1174470E+03
 3.6961193E+01  2.1184888E+03
 3.6981689E+01  2.1150986E+03
 3.7002182E+01  2.1186897E+03
 3.7022678E+01  2.1255361E+03
 3.7043171E+01  2.1214880E+03
 3.7063663E+01  2.1105747E+03
 3.7084160E+01  2.1175828E+03
 3.7104652E+01  2.1148247E+03
 3.7125149E+01  2.1156633E+03
 3.7145641E+01  2.1135237E+03
 3.7166134E+01  2.1170168E+03
 3.7186630E+01  2.1092104E+03
 3.7207123E+01  2.1145125E+03
 3.7227619E+01  2.1121799E+03
 3.7248112E+01  2.1174399E+03
 3.7268608E+01  2.1171099E+03
 3.7289101E+01  2.1211472E+03
 3.7309593E+01  2.1154075E+03
 3.7330090E+01  2.1179338E+03
 3.7350582E+01  2.1111260E+03
 3.7371078E+01  2.1111211E+03
 3.7391571E+01  2.1087397E+03
 3.7412064E+01  2.1052869E+03
 3.7432560E+01  2.1053103E+03
 3.7453053E+01  2.1081470E+03
 3.7473549E+01  2.1098042E+03
 3.7494041E+01  2.0997549E+03
 3.7514538E+01  2.1044719E+03
 3.7535030E+01  2.1035486E+03
 3.7555523E+01  2.1063782E+03
 3.7576019E+01  2.1041941E+03
 3.7596512E+01  2.0998210E+03
 3.7617008E+01  2.0978806E+03
 3.7637501E+01  2.1019160E+03
 3.7657993E+01  2.0985269E+03
 3.7678490E+01  2.1024556E+03
 3.7698982E+01  2.0969919E+03
 3.7719479E+01  2.1011506E+03
 3.7739971E+01  2.0947505E+03
 3.7760468E+01  2.0987861E+03
 3.7780960E+01  2.0962119E+03
 3.7801453E+01  2.0879282E+03
 3.7821949E+01  2.0912012E+03
 3.7842442E+01  2.0941428E+03
 3.7862938E+01  2.0928000E+03
 3.7883430E+01  2.0912083E+03
 3.7903923E+01  2.0847683E+03
 3.7924419E+01  2.0885361E+03
 3.7944912E+01  2.0933179E+03
 3.7965408E+01  2.0906306E+03
 3.7985901E+01  2.0889614E+03
 3.8006397E+01  2.0883159E+03
 3.8026890E+01  2.0887141E+03
 3.8047382E+01  2.0842935E+03
 3.8067879E+01  2.0835967E+03
 3.8088371E+01  2.0796995E+03
 3.8108868E+01  2.0835107E+03
 3.8129360E+01  2.0782813E+03
 3.8149853E+01  2.0802883E+03
 3.8170349E+01  2.0852773E+03
 3.8190842E+01  2.0851040E+03
 3.8211338E+01  2.0787642E+03
 3.8231831E+01  2.0776311E+03
 3.8252327E+01  2.0746628E+03
 3.8272820E+01  2.0758218E+03
 3.8293312E+01  2.0779519E+03
 3.8313808E+01  2.0744485E+03
 3.8334301E+01  2.0735410E+03
 3.8354797E+01  2.0716230E+03
 3.8375290E+01  2.0723948E+03
 3.8395786E+01  2.0684165E+03
 3.8416279E+01  2.0749243E+03
 3.8436771E+01  2.0775540E+03
 3.8457268E+01  2.0696753E+03
 3.8477760E+01  2.0715520E+03
 3.8498257E+01  2.0736277E+03
 3.8518749E+01  2.0731807E+03
 3.8539242E+01  2.0756887E+03
 3.8559738E+01  2.0745193E+03
 3.8580231E+01  2.0711477E+03
 3.8600727E+01  2.0721155E+03
 3.8621220E+01  2.0448612E+03
 3.8641716E+01  2.0408370E+03
 3.8662209E+01  2.0624280E+03
 3.8682701E+01  2.0630732E+03
 3.8703197E+01  2.0677061E+03
 3.8723690E+01  2.0625466E+03
 3.8744186E+01  2.0651228E+03
 3.8764679E+01  2.0610330E+03
 3.8785172E+01  2.0566943E+03
 3.8805668E+01  2.0507710E+03
 3.8826160E+01  2.0503269E+03
 3.8846657E+01  2.0529553E+03
 3.8867149E+01  2.0509631E+03
 3.8887646E+01  2.0505967E+03
 3.8908138E+01  2.0455320E+03
 3.8928631E+01  2.0553655E+03
 3.8949127E+01  2.0617595E+03
 3.8969620E+01  2.0591118E+03
 3.8990116E+01  2.0476692E+03
 3.9010609E+01  2.0499390E+03
 3.9031101E+01  2.0513623E+03
 3.9051598E+01  2.0496406E+03
 3.9072090E+01  2.0551614E+03
 3.9092587E+01  2.0555967E+03
 3.9113079E+01  2.0510688E+03
 3.9133575E+01  2.0502407E+03
 3.9154068E+01  2.0490720E+03
 3.9174561E+01  2.0422866E+03
 3.9195057E+01  2.0373821E+03
 3.9215549E+01  2.0366199E+03
 3.9236046E+01  2.0479237E+03
 3.9256538E+01  2.0396514E+03
 3.9277031E+01  2.0458312E+03
 3.9297527E+01  2.0443453E+03
 3.9318020E+01  2.0370154E+03
 3.9338516E+01  2.0353204E+03
 3.9359009E+01  2.0350930E+03
 3.9379505E+01  2.0214440E+03
 3.9399998E+01  2.0260026E+03
 3.9420490E+01  2.0363796E+03
 3.9440987E+01  2.0379083E+03
 3.9461479E+01  2.0360387E+03
 3.9481976E+01  2.0303005E+03
 3.9502468E+01  2.0350609E+03
 3.9522961E+01  2.0263948E+03
 3.9543457E+01  2.0221204E+03
 3.9563950E+01  2.0263478E+03
 3.9584446E+01  2.0169521E+03
 3.9604939E+01  2.0191609E+03
 3.9625435E+01  2.0208149E+03
 3.9645927E+01  2.0176018E+03
 3.9666420E+01  2.0136085E+03
 3.9686916E+01  2.0162639E+03
 3.9707409E+01  2.0039791E+03
 3.9727905E+01  2.0119951E+03
 3.9748398E+01  2.0166603E+03
 3.9768890E+01  2.0142653E+03
 3.9789387E+01  2.0015746E+03
 3.9809879E+01  2.0004965E+03
 3.9830376E+01  1.9960601E+03
 3.9850868E+01  1.9925669E+03
 3.9871365E+01  1.9882620E+03
 3.9891857E+01  1.9877921E+03
 3.9912350E+01  1.9849794E+03
 3.9932846E+01  1.9948235E+03
 3.9953339E+01  1.9919023E+03
 3.9973835E+01  1.9886599E+03
 3.9994328E+01  1.9952904E+03
 4.0014824E+01  1.9818527E+03
 4.0035316E+01  1.9790973E+03
 4.0055809E+01  1.9755969E+03
 4.0076305E+01  1.9746960E+03
 4.0096798E+01  1.9667625E+03
 4.0117294E+01  1.9575106E+03
 4.0137787E+01  1.9569733E+03
 4.0158279E+01  1.9556667E+03
 4.0178776E+01  1.9575709E+03
 4.0199268E+01  1.9510291E+03
 4.0219765E+01  1.9532124E+03
 4.0240257E+01  1.9413248E+03
 4.0260754E+01  1.9427872E+03
 4.0281246E+01  1.9344856E+03
 4.0301739E+01  1.9334288E+03
 4.0322235E+01  1.9320170E+03
 4.0342728E+01  1.9296429E+03
 4.0363224E+01  1.9220328E+03
 4.0383717E+01  1.9160734E+03
 4.0404209E+01  1.9183945E+03
 4.0424706E+01  1.9160685E+03
 4.0445198E+01  1.9138839E+03
 4.0465694E+01  1.9064546E+03
 4.0486187E+01  1.9113245E+03
 4.0506683E+01  1.9013353E+03
 4.0527176E+01  1.8894948E+03
 4.0547668E+01  1.8742084E+03
 4.0568165E+01  1.8659342E+03
 4.0588657E+01  1.8752583E+03
 4.0609154E+01  1.8653583E+03
 4.0629646E+01  1.8625247E+03
 4.0650139E+01  1.8599919E+03
 4.0670635E+01  1.8511765E+03
 4.0691128E+01  1.8374944E+03
 4.0711624E+01  1.8470950E+03
 4.0732117E+01  1.8346272E+03
 4.0752613E+01  1.8320415E+03
 4.0773106E+01  1.8030719E+03
 4.0793598E+01  1.7862356E+03
 4.0814095E+01  1.7725940E+03
 4.0834587E+01  1.7599449E+03
 4.0855083E+01  1.7790167E+03
 4.0875576E+01  1.7607030E+03
 4.0896069E+01  1.7511053E+03
 4.0916565E+01  1.7779846E+03
 4.0937057E+01  1.8162100E+03
 4.0957554E+01  1.8226360E+03
 4.0978046E+01  1.8376420E+03
 4.0998543E+01  1.8693599E+03
 4.1019035E+01  1.9149686E+03
 4.1039528E+01  1.9549448E+03
 4.1060024E+01  1.9782500E+03
 4.1080517E+01  1.9733811E+03
 4.1101013E+01  1.9688049E+03
 4.1121506E+01  1.9685701E+03
 4.1141998E+01  1.9572319E+03
 4.1162495E+01  1.9501235E+03
 4.1182987E+01  1.9279919E+03
 4.1203484E+01  1.9050757E+03
 4.1223976E+01  1.9110634E+03
 4.1244473E+01  1.8998939E+03
 4.1264965E+01  1.9143727E+03
 4.1285458E+01  1.8932031E+03
 4.1305954E+01  1.8882742E+03
 4.1326447E+01  1.8800275E+03
 4.1346943E+01  1.8693971E+03
 4.1367435E+01  1.8626921E+03
 4.1387928E+01  1.8648989E+03
 4.1408424E+01  1.8176505E+03
 4.1428917E+01  1.8039922E+03
 4.1449413E+01  1.8099863E+03
 4.1469906E+01  1.8058217E+03
 4.1490402E+01  1.7739199E+03
 4.1510895E+01  1.7388813E+03
 4.1531387E+01  1.7091541E+03
 4.1551884E+01  1.7338207E+03
 4.1572376E+01  1.6574752E+03
 4.1592873E+01  1.6345333E+03
 4.1613365E+01  1.6000896E+03
 4.1633862E+01  1.5914852E+03
 4.1654354E+01  1.5472067E+03
 4.1674847E+01  1.5193955E+03
 4.1695343E+01  1.4275797E+03
 4.1715836E+01  1.3544148E+03
 4.1736332E+01  1.2995364E+03
 4.1756824E+01  1.0834799E+03
 4.1777317E+01  8.8998157E+02
 4.1797813E+01  8.0327484E+02
 4.1818306E+01  7.0424658E+02
 4.1838802E+01  5.6405463E+02
 4.1859295E+01  5.2652905E+02
 4.1879791E+01  4.3007132E+02
 4.1900284E+01  2.8699948E+02
 4.1920776E+01  1.6428505E+02
 4.1941273E+01  5.1178711E+01
 4.1961765E+01 -1.1792601E+00
