D:\workspace\KFe2As2-00838.tif: 2-theta Scan
2-Theta Angle (Degrees)

       1662
 1.2623657E-02  1.5819899E+03
 3.7870973E-02  1.6026256E+03
 6.3118286E-02  1.6059871E+03
 8.8365607E-02  1.5882622E+03
 1.1361292E-01  1.5936838E+03
 1.3886024E-01  1.6203690E+03
 1.6410755E-01  1.6623396E+03
 1.8935487E-01  1.6993068E+03
 2.1460217E-01  1.7853821E+03
 2.3984949E-01  2.0588274E+03
 2.6509681E-01  2.7831099E+03
 2.9034412E-01  4.1900171E+03
 3.1559145E-01  5.9550752E+03
 3.4083876E-01  7.7780317E+03
 3.6608607E-01  9.4664707E+03
 3.9133337E-01  1.0688271E+04
 4.1658071E-01  1.1299417E+04
 4.4182801E-01  1.1295624E+04
 4.6707532E-01  1.0998111E+04
 4.9232265E-01  1.0761945E+04
 5.1756996E-01  1.0682238E+04
 5.4281729E-01  1.0720313E+04
 5.6806457E-01  1.0761952E+04
 5.9331191E-01  1.0815307E+04
 6.1855924E-01  1.0844830E+04
 6.4380652E-01  1.0843819E+04
 6.6905385E-01  1.0855326E+04
 6.9430119E-01  1.0875385E+04
 7.1954846E-01  1.0879164E+04
 7.4479580E-01  1.1059555E+04
 7.7004313E-01  1.1697470E+04
 7.9529041E-01  1.4194827E+04
 8.2053775E-01  2.3722436E+04
 8.4578508E-01  4.4654367E+04
 8.7103236E-01  6.6474250E+04
 8.9627969E-01  7.2627008E+04
 9.2152703E-01  6.2053176E+04
 9.4677430E-01  3.9529801E+04
 9.7202164E-01  1.9978686E+04
 9.9726897E-01  1.2106174E+04
 1.0225163E+00  9.9806328E+03
 1.0477636E+00  9.2903340E+03
 1.0730109E+00  8.9599170E+03
 1.0982583E+00  8.7255381E+03
 1.1235055E+00  8.5250918E+03
 1.1487528E+00  8.3614912E+03
 1.1740001E+00  8.2295010E+03
 1.1992475E+00  8.1131074E+03
 1.2244948E+00  8.0093408E+03
 1.2497422E+00  7.9092368E+03
 1.2749894E+00  7.7906597E+03
 1.3002367E+00  7.6330254E+03
 1.3254840E+00  7.5043193E+03
 1.3507314E+00  7.3902148E+03
 1.3759787E+00  7.3018809E+03
 1.4012260E+00  7.1849282E+03
 1.4264733E+00  7.0733691E+03
 1.4517206E+00  6.9958047E+03
 1.4769679E+00  6.9164028E+03
 1.5022153E+00  6.8538618E+03
 1.5274626E+00  6.8366206E+03
 1.5527099E+00  6.9271870E+03
 1.5779572E+00  7.4364067E+03
 1.6032045E+00  9.3062021E+03
 1.6284518E+00  1.3301044E+04
 1.6536992E+00  1.7201201E+04
 1.6789465E+00  1.8205248E+04
 1.7041938E+00  1.5904831E+04
 1.7294410E+00  1.1750368E+04
 1.7546884E+00  8.7968770E+03
 1.7799357E+00  7.8249048E+03
 1.8051831E+00  7.5519810E+03
 1.8304304E+00  7.3567671E+03
 1.8556777E+00  7.1919297E+03
 1.8809249E+00  7.2063579E+03
 1.9061723E+00  7.3843760E+03
 1.9314196E+00  7.6997324E+03
 1.9566669E+00  8.2916836E+03
 1.9819143E+00  9.8043389E+03
 2.0071616E+00  1.5166895E+04
 2.0324090E+00  3.2275406E+04
 2.0576563E+00  6.3166371E+04
 2.0829036E+00  8.9706320E+04
 2.1081507E+00  9.3476805E+04
 2.1333981E+00  7.2101250E+04
 2.1586454E+00  3.9976363E+04
 2.1838927E+00  1.8446238E+04
 2.2091401E+00  1.1753250E+04
 2.2343874E+00  1.1637045E+04
 2.2596347E+00  1.2950337E+04
 2.2848821E+00  1.3268730E+04
 2.3101294E+00  1.2086688E+04
 2.3353767E+00  1.0303453E+04
 2.3606241E+00  1.0121988E+04
 2.3858712E+00  1.3978286E+04
 2.4111185E+00  2.1623467E+04
 2.4363658E+00  2.7802783E+04
 2.4616132E+00  2.8025527E+04
 2.4868605E+00  2.2203998E+04
 2.5121078E+00  1.4309241E+04
 2.5373552E+00  9.5049082E+03
 2.5626025E+00  8.1354434E+03
 2.5878499E+00  7.7750615E+03
 2.6130972E+00  7.5304707E+03
 2.6383445E+00  7.3720483E+03
 2.6635919E+00  7.8125122E+03
 2.6888390E+00  9.0066982E+03
 2.7140863E+00  1.0498249E+04
 2.7393336E+00  1.1608900E+04
 2.7645810E+00  1.1641633E+04
 2.7898283E+00  1.1406105E+04
 2.8150756E+00  1.3833458E+04
 2.8403230E+00  2.3698457E+04
 2.8655703E+00  3.9488676E+04
 2.8908176E+00  5.0482121E+04
 2.9160650E+00  4.8731234E+04
 2.9413123E+00  3.5608383E+04
 2.9665596E+00  2.0591232E+04
 2.9918067E+00  1.3114585E+04
 3.0170541E+00  1.2729626E+04
 3.0423014E+00  1.3009765E+04
 3.0675488E+00  1.1586791E+04
 3.0927961E+00  1.0140594E+04
 3.1180434E+00  9.8573311E+03
 3.1432908E+00  1.2973960E+04
 3.1685381E+00  2.2117023E+04
 3.1937854E+00  3.5063227E+04
 3.2190328E+00  4.3011582E+04
 3.2442801E+00  4.1593535E+04
 3.2695274E+00  3.1673053E+04
 3.2947745E+00  2.1926393E+04
 3.3200219E+00  1.8393453E+04
 3.3452692E+00  1.7830797E+04
 3.3705165E+00  1.6318772E+04
 3.3957639E+00  1.3647031E+04
 3.4210112E+00  1.2505913E+04
 3.4462585E+00  1.7387564E+04
 3.4715059E+00  3.0691354E+04
 3.4967532E+00  4.7285262E+04
 3.5220006E+00  5.6786645E+04
 3.5472479E+00  5.4191996E+04
 3.5724952E+00  4.0736910E+04
 3.5977423E+00  2.5939859E+04
 3.6229897E+00  1.7244779E+04
 3.6482370E+00  1.2763935E+04
 3.6734843E+00  9.9779941E+03
 3.6987317E+00  8.1913418E+03
 3.7239790E+00  7.5209077E+03
 3.7492263E+00  8.5118975E+03
 3.7744737E+00  1.2764232E+04
 3.7997210E+00  2.1523826E+04
 3.8249683E+00  3.0786191E+04
 3.8502157E+00  3.4396969E+04
 3.8754628E+00  3.0052031E+04
 3.9007101E+00  2.0424826E+04
 3.9259574E+00  1.1830191E+04
 3.9512048E+00  7.6077749E+03
 3.9764521E+00  6.0848027E+03
 4.0016994E+00  5.4874336E+03
 4.0269465E+00  5.1929048E+03
 4.0521941E+00  5.0390151E+03
 4.0774412E+00  4.9464478E+03
 4.1026888E+00  4.9177388E+03
 4.1279359E+00  4.9963438E+03
 4.1531835E+00  5.2605029E+03
 4.1784306E+00  5.7827183E+03
 4.2036781E+00  6.4982041E+03
 4.2289252E+00  7.2085557E+03
 4.2541728E+00  7.8127236E+03
 4.2794199E+00  8.4014131E+03
 4.3046675E+00  8.8759199E+03
 4.3299146E+00  8.8218438E+03
 4.3551617E+00  8.3302070E+03
 4.3804092E+00  7.3753125E+03
 4.4056563E+00  6.9207148E+03
 4.4309039E+00  7.4812993E+03
 4.4561510E+00  8.6545215E+03
 4.4813986E+00  1.0265495E+04
 4.5066457E+00  1.2654371E+04
 4.5318933E+00  1.5448180E+04
 4.5571404E+00  1.7192172E+04
 4.5823879E+00  1.6913375E+04
 4.6076350E+00  1.4678743E+04
 4.6328821E+00  1.1807935E+04
 4.6581297E+00  9.8510215E+03
 4.6833768E+00  8.8369082E+03
 4.7086244E+00  8.9603115E+03
 4.7338715E+00  1.1007222E+04
 4.7591190E+00  1.4653662E+04
 4.7843661E+00  1.8308086E+04
 4.8096137E+00  1.9680742E+04
 4.8348608E+00  1.7821758E+04
 4.8601084E+00  1.3853217E+04
 4.8853555E+00  9.8145361E+03
 4.9106030E+00  7.3514292E+03
 4.9358501E+00  6.7748242E+03
 4.9610972E+00  7.7056279E+03
 4.9863448E+00  9.4150566E+03
 5.0115919E+00  1.0783287E+04
 5.0368395E+00  1.1101426E+04
 5.0620866E+00  1.0318703E+04
 5.0873342E+00  9.2620977E+03
 5.1125813E+00  9.2480547E+03
 5.1378288E+00  1.0526201E+04
 5.1630759E+00  1.1943207E+04
 5.1883235E+00  1.2281370E+04
 5.2135706E+00  1.1378316E+04
 5.2388177E+00  9.8663320E+03
 5.2640653E+00  8.7260127E+03
 5.2893124E+00  8.4516084E+03
 5.3145599E+00  9.2513154E+03
 5.3398070E+00  1.1870016E+04
 5.3650546E+00  1.6173021E+04
 5.3903017E+00  1.9894424E+04
 5.4155493E+00  2.0503002E+04
 5.4407964E+00  1.8854891E+04
 5.4660439E+00  1.5924379E+04
 5.4912910E+00  1.3885210E+04
 5.5165381E+00  1.2921632E+04
 5.5417857E+00  1.1569031E+04
 5.5670328E+00  9.4398574E+03
 5.5922804E+00  7.4452261E+03
 5.6175275E+00  6.3847891E+03
 5.6427751E+00  6.3643179E+03
 5.6680222E+00  7.4420776E+03
 5.6932697E+00  1.0414313E+04
 5.7185168E+00  1.5587209E+04
 5.7437644E+00  2.1275037E+04
 5.7690115E+00  2.4643832E+04
 5.7942591E+00  2.3858867E+04
 5.8195062E+00  1.9369078E+04
 5.8447533E+00  1.3824368E+04
 5.8700008E+00  9.9347988E+03
 5.8952479E+00  8.5634219E+03
 5.9204955E+00  9.1790781E+03
 5.9457426E+00  1.0528752E+04
 5.9709902E+00  1.1331085E+04
 5.9962373E+00  1.1105983E+04
 6.0214849E+00  1.0195324E+04
 6.0467319E+00  9.4808398E+03
 6.0719795E+00  9.4362822E+03
 6.0972266E+00  9.5441699E+03
 6.1224737E+00  9.0404619E+03
 6.1477213E+00  7.9635161E+03
 6.1729684E+00  6.9687466E+03
 6.1982160E+00  6.6271553E+03
 6.2234631E+00  6.9862290E+03
 6.2487106E+00  7.5420493E+03
 6.2739577E+00  7.8152407E+03
 6.2992053E+00  7.7459390E+03
 6.3244524E+00  7.7217158E+03
 6.3497000E+00  8.1333257E+03
 6.3749471E+00  8.9780020E+03
 6.4001946E+00  9.8040410E+03
 6.4254417E+00  1.0027740E+04
 6.4506888E+00  9.5338057E+03
 6.4759364E+00  8.6899561E+03
 6.5011835E+00  7.7825698E+03
 6.5264311E+00  7.0818584E+03
 6.5516782E+00  6.8975269E+03
 6.5769258E+00  7.3414180E+03
 6.6021729E+00  8.2850596E+03
 6.6274204E+00  9.4077832E+03
 6.6526675E+00  1.0264972E+04
 6.6779151E+00  1.0338766E+04
 6.7031622E+00  9.6929209E+03
 6.7284093E+00  9.0460293E+03
 6.7536569E+00  8.8820869E+03
 6.7789040E+00  9.1146816E+03
 6.8041515E+00  9.3004365E+03
 6.8293986E+00  9.0444736E+03
 6.8546462E+00  8.3941748E+03
 6.8798933E+00  7.6760576E+03
 6.9051409E+00  7.0742734E+03
 6.9303880E+00  6.5398940E+03
 6.9556355E+00  6.1641016E+03
 6.9808826E+00  6.2227676E+03
 7.0061297E+00  6.8377578E+03
 7.0313773E+00  7.8042124E+03
 7.0566244E+00  8.5408232E+03
 7.0818720E+00  8.5902129E+03
 7.1071191E+00  8.0642622E+03
 7.1323667E+00  7.4900498E+03
 7.1576138E+00  7.4119087E+03
 7.1828613E+00  7.8984702E+03
 7.2081084E+00  8.5413926E+03
 7.2333560E+00  8.8158086E+03
 7.2586031E+00  8.7197871E+03
 7.2838507E+00  8.5996436E+03
 7.3090978E+00  8.8204531E+03
 7.3343449E+00  9.3464834E+03
 7.3595924E+00  9.6250049E+03
 7.3848395E+00  9.2644844E+03
 7.4100871E+00  8.2816016E+03
 7.4353342E+00  7.0348945E+03
 7.4605818E+00  6.0843853E+03
 7.4858289E+00  5.6521353E+03
 7.5110765E+00  5.5703701E+03
 7.5363235E+00  5.6380649E+03
 7.5615711E+00  5.7611875E+03
 7.5868182E+00  5.8954595E+03
 7.6120653E+00  5.9790435E+03
 7.6373129E+00  5.9154834E+03
 7.6625600E+00  5.7218003E+03
 7.6878076E+00  5.5516616E+03
 7.7130547E+00  5.5557773E+03
 7.7383022E+00  5.8209189E+03
 7.7635493E+00  6.2417158E+03
 7.7887969E+00  6.5755225E+03
 7.8140440E+00  6.6765542E+03
 7.8392916E+00  6.5441177E+03
 7.8645387E+00  6.2402769E+03
 7.8897862E+00  5.8556631E+03
 7.9150333E+00  5.4878311E+03
 7.9402804E+00  5.3250610E+03
 7.9655280E+00  5.6130137E+03
 7.9907751E+00  6.5887148E+03
 8.0160227E+00  8.1819209E+03
 8.0412703E+00  9.7937500E+03
 8.0665169E+00  1.0867865E+04
 8.0917645E+00  1.1177117E+04
 8.1170120E+00  1.0533992E+04
 8.1422596E+00  9.4518994E+03
 8.1675062E+00  8.4977109E+03
 8.1927538E+00  7.9496968E+03
 8.2180014E+00  7.6990249E+03
 8.2432480E+00  7.4348154E+03
 8.2684956E+00  7.0746660E+03
 8.2937431E+00  6.7509292E+03
 8.3189907E+00  6.6126997E+03
 8.3442373E+00  6.7676646E+03
 8.3694849E+00  7.2049746E+03
 8.3947325E+00  7.8431484E+03
 8.4199800E+00  8.4376152E+03
 8.4452267E+00  8.6496426E+03
 8.4704742E+00  8.3741357E+03
 8.4957218E+00  7.7688550E+03
 8.5209684E+00  7.0350220E+03
 8.5462160E+00  6.4834736E+03
 8.5714636E+00  6.2908740E+03
 8.5967112E+00  6.4687715E+03
 8.6219578E+00  6.9088447E+03
 8.6472054E+00  7.3382051E+03
 8.6724529E+00  7.5221831E+03
 8.6977005E+00  7.4022129E+03
 8.7229471E+00  7.0771660E+03
 8.7481947E+00  6.6978955E+03
 8.7734423E+00  6.4493799E+03
 8.7986889E+00  6.3089482E+03
 8.8239365E+00  6.0912690E+03
 8.8491840E+00  5.7456357E+03
 8.8744316E+00  5.3513921E+03
 8.8996782E+00  5.0880356E+03
 8.9249258E+00  5.1106172E+03
 8.9501734E+00  5.3581841E+03
 8.9754210E+00  5.6472041E+03
 9.0006676E+00  5.8365850E+03
 9.0259151E+00  5.8460259E+03
 9.0511627E+00  5.6937222E+03
 9.0764103E+00  5.4610122E+03
 9.1016569E+00  5.2306416E+03
 9.1269045E+00  5.0943999E+03
 9.1521521E+00  5.0506069E+03
 9.1773987E+00  5.0827373E+03
 9.2026463E+00  5.1967622E+03
 9.2278938E+00  5.3335293E+03
 9.2531414E+00  5.4552427E+03
 9.2783880E+00  5.5050825E+03
 9.3036356E+00  5.4016016E+03
 9.3288832E+00  5.1680181E+03
 9.3541307E+00  4.9437988E+03
 9.3793774E+00  4.8370210E+03
 9.4046249E+00  4.9044116E+03
 9.4298725E+00  5.1262666E+03
 9.4551191E+00  5.4447549E+03
 9.4803667E+00  5.8204878E+03
 9.5056143E+00  6.2074048E+03
 9.5308619E+00  6.4849482E+03
 9.5561085E+00  6.5673013E+03
 9.5813560E+00  6.4921743E+03
 9.6066036E+00  6.2909116E+03
 9.6318512E+00  5.9798457E+03
 9.6570978E+00  5.6276089E+03
 9.6823454E+00  5.3611597E+03
 9.7075930E+00  5.2958760E+03
 9.7328396E+00  5.4281021E+03
 9.7580872E+00  5.5909849E+03
 9.7833347E+00  5.6941611E+03
 9.8085823E+00  5.7380786E+03
 9.8338289E+00  5.7134692E+03
 9.8590765E+00  5.6094717E+03
 9.8843241E+00  5.4450430E+03
 9.9095716E+00  5.2953467E+03
 9.9348183E+00  5.2303428E+03
 9.9600658E+00  5.2382637E+03
 9.9853134E+00  5.2731563E+03
 1.0010560E+01  5.3157090E+03
 1.0035808E+01  5.3916714E+03
 1.0061055E+01  5.4935537E+03
 1.0086303E+01  5.5782402E+03
 1.0111549E+01  5.6296836E+03
 1.0136797E+01  5.6333926E+03
 1.0162045E+01  5.5566914E+03
 1.0187292E+01  5.4465049E+03
 1.0212539E+01  5.3761880E+03
 1.0237786E+01  5.4177070E+03
 1.0263034E+01  5.5558501E+03
 1.0288280E+01  5.7013589E+03
 1.0313528E+01  5.8024585E+03
 1.0338776E+01  5.8632388E+03
 1.0364023E+01  5.8535967E+03
 1.0389270E+01  5.7244551E+03
 1.0414517E+01  5.4593491E+03
 1.0439765E+01  5.1080347E+03
 1.0465013E+01  4.7768794E+03
 1.0490259E+01  4.5568218E+03
 1.0515507E+01  4.4299067E+03
 1.0540754E+01  4.3851636E+03
 1.0566002E+01  4.3535723E+03
 1.0591249E+01  4.3215469E+03
 1.0616496E+01  4.3159219E+03
 1.0641744E+01  4.3045093E+03
 1.0666990E+01  4.2794526E+03
 1.0692238E+01  4.2658379E+03
 1.0717485E+01  4.3056968E+03
 1.0742733E+01  4.4055073E+03
 1.0767980E+01  4.5298013E+03
 1.0793227E+01  4.6704019E+03
 1.0818475E+01  4.8335635E+03
 1.0843722E+01  4.9958535E+03
 1.0868969E+01  5.1279053E+03
 1.0894217E+01  5.2057251E+03
 1.0919464E+01  5.2214453E+03
 1.0944711E+01  5.2155718E+03
 1.0969958E+01  5.2356367E+03
 1.0995206E+01  5.2976719E+03
 1.1020453E+01  5.3638320E+03
 1.1045700E+01  5.4155039E+03
 1.1070948E+01  5.4239004E+03
 1.1096195E+01  5.3739399E+03
 1.1121443E+01  5.2649028E+03
 1.1146689E+01  5.1023926E+03
 1.1171937E+01  4.9130967E+03
 1.1197185E+01  4.7468984E+03
 1.1222431E+01  4.6467266E+03
 1.1247679E+01  4.6218013E+03
 1.1272926E+01  4.6360688E+03
 1.1298174E+01  4.6693008E+03
 1.1323421E+01  4.7241216E+03
 1.1348668E+01  4.7869575E+03
 1.1373916E+01  4.8435898E+03
 1.1399163E+01  4.8793135E+03
 1.1424410E+01  4.9349951E+03
 1.1449657E+01  5.0512573E+03
 1.1474905E+01  5.2104399E+03
 1.1500152E+01  5.3403438E+03
 1.1525399E+01  5.4036201E+03
 1.1550647E+01  5.4036440E+03
 1.1575894E+01  5.3554146E+03
 1.1601141E+01  5.2604824E+03
 1.1626389E+01  5.1423291E+03
 1.1651636E+01  5.0183374E+03
 1.1676884E+01  4.9036743E+03
 1.1702130E+01  4.8404248E+03
 1.1727378E+01  4.8403999E+03
 1.1752625E+01  4.8608687E+03
 1.1777872E+01  4.8733623E+03
 1.1803120E+01  4.8765068E+03
 1.1828367E+01  4.8352896E+03
 1.1853615E+01  4.7396030E+03
 1.1878861E+01  4.6277314E+03
 1.1904109E+01  4.5186318E+03
 1.1929357E+01  4.3857368E+03
 1.1954604E+01  4.2309199E+03
 1.1979851E+01  4.0696172E+03
 1.2005098E+01  3.9262605E+03
 1.2030346E+01  3.8189431E+03
 1.2055593E+01  3.7714590E+03
 1.2080840E+01  3.7813586E+03
 1.2106088E+01  3.8120117E+03
 1.2131335E+01  3.8431919E+03
 1.2156582E+01  3.8707500E+03
 1.2181829E+01  3.9021030E+03
 1.2207077E+01  3.9429602E+03
 1.2232325E+01  3.9790811E+03
 1.2257571E+01  3.9892983E+03
 1.2282819E+01  3.9759944E+03
 1.2308066E+01  3.9630476E+03
 1.2333314E+01  3.9793533E+03
 1.2358561E+01  4.0241050E+03
 1.2383808E+01  4.0731851E+03
 1.2409056E+01  4.1055200E+03
 1.2434302E+01  4.1274971E+03
 1.2459550E+01  4.1592607E+03
 1.2484797E+01  4.2027637E+03
 1.2510045E+01  4.2430063E+03
 1.2535292E+01  4.2469092E+03
 1.2560539E+01  4.2091362E+03
 1.2585787E+01  4.1713530E+03
 1.2611034E+01  4.1521909E+03
 1.2636281E+01  4.1667300E+03
 1.2661529E+01  4.2060879E+03
 1.2686776E+01  4.2358389E+03
 1.2712023E+01  4.2495913E+03
 1.2737270E+01  4.2574707E+03
 1.2762518E+01  4.2664248E+03
 1.2787766E+01  4.2690918E+03
 1.2813012E+01  4.2565122E+03
 1.2838260E+01  4.2385420E+03
 1.2863507E+01  4.2268931E+03
 1.2888755E+01  4.2454307E+03
 1.2914001E+01  4.2919438E+03
 1.2939249E+01  4.3263745E+03
 1.2964497E+01  4.3507671E+03
 1.2989743E+01  4.3661836E+03
 1.3014991E+01  4.3698174E+03
 1.3040238E+01  4.3598579E+03
 1.3065486E+01  4.3416504E+03
 1.3090733E+01  4.3245298E+03
 1.3115980E+01  4.2967446E+03
 1.3141228E+01  4.2425249E+03
 1.3166475E+01  4.1639248E+03
 1.3191722E+01  4.0897629E+03
 1.3216969E+01  4.0310063E+03
 1.3242217E+01  3.9991467E+03
 1.3267464E+01  3.9934646E+03
 1.3292711E+01  4.0067300E+03
 1.3317959E+01  4.0203877E+03
 1.3343206E+01  4.0204658E+03
 1.3368453E+01  4.0177866E+03
 1.3393701E+01  4.0238506E+03
 1.3418948E+01  4.0420254E+03
 1.3444196E+01  4.0633171E+03
 1.3469442E+01  4.0908494E+03
 1.3494690E+01  4.1229585E+03
 1.3519938E+01  4.1506436E+03
 1.3545185E+01  4.1688276E+03
 1.3570432E+01  4.1708555E+03
 1.3595679E+01  4.1591782E+03
 1.3620927E+01  4.1372490E+03
 1.3646173E+01  4.1151699E+03
 1.3671421E+01  4.0972739E+03
 1.3696669E+01  4.0859412E+03
 1.3721916E+01  4.0730217E+03
 1.3747163E+01  4.0467898E+03
 1.3772410E+01  4.0205735E+03
 1.3797658E+01  3.9966091E+03
 1.3822906E+01  3.9812900E+03
 1.3848152E+01  3.9883086E+03
 1.3873400E+01  4.0094785E+03
 1.3898647E+01  4.0304878E+03
 1.3923894E+01  4.0320623E+03
 1.3949142E+01  4.0046169E+03
 1.3974389E+01  3.9648958E+03
 1.3999637E+01  3.9377764E+03
 1.4024883E+01  3.9397207E+03
 1.4050131E+01  3.9627578E+03
 1.4075378E+01  3.9834202E+03
 1.4100626E+01  3.9884417E+03
 1.4125873E+01  3.9820806E+03
 1.4151120E+01  3.9684216E+03
 1.4176368E+01  3.9554041E+03
 1.4201614E+01  3.9472722E+03
 1.4226862E+01  3.9448027E+03
 1.4252110E+01  3.9398828E+03
 1.4277357E+01  3.9256748E+03
 1.4302604E+01  3.8971277E+03
 1.4327851E+01  3.8636060E+03
 1.4353099E+01  3.8394146E+03
 1.4378346E+01  3.8115977E+03
 1.4403593E+01  3.7752021E+03
 1.4428841E+01  3.7341951E+03
 1.4454088E+01  3.6955076E+03
 1.4479335E+01  3.6658877E+03
 1.4504582E+01  3.6547034E+03
 1.4529830E+01  3.6540654E+03
 1.4555078E+01  3.6558027E+03
 1.4580324E+01  3.6606636E+03
 1.4605572E+01  3.6666904E+03
 1.4630819E+01  3.6668855E+03
 1.4656067E+01  3.6568276E+03
 1.4681314E+01  3.6437673E+03
 1.4706561E+01  3.6342092E+03
 1.4731809E+01  3.6357747E+03
 1.4757055E+01  3.6477532E+03
 1.4782303E+01  3.6715681E+03
 1.4807550E+01  3.6922185E+03
 1.4832798E+01  3.6968274E+03
 1.4858045E+01  3.6819451E+03
 1.4883292E+01  3.6551262E+03
 1.4908540E+01  3.6339287E+03
 1.4933787E+01  3.6286519E+03
 1.4959034E+01  3.6451201E+03
 1.4984282E+01  3.6765525E+03
 1.5009529E+01  3.6987068E+03
 1.5034777E+01  3.6956292E+03
 1.5060023E+01  3.6714758E+03
 1.5085271E+01  3.6497742E+03
 1.5110518E+01  3.6421646E+03
 1.5135765E+01  3.6455684E+03
 1.5161013E+01  3.6565371E+03
 1.5186260E+01  3.6617585E+03
 1.5211508E+01  3.6569988E+03
 1.5236754E+01  3.6339656E+03
 1.5262002E+01  3.6075867E+03
 1.5287250E+01  3.5932410E+03
 1.5312497E+01  3.5943777E+03
 1.5337744E+01  3.6017590E+03
 1.5362991E+01  3.5983999E+03
 1.5388239E+01  3.5753491E+03
 1.5413486E+01  3.5453186E+03
 1.5438733E+01  3.5240156E+03
 1.5463981E+01  3.5163030E+03
 1.5489228E+01  3.5187539E+03
 1.5514475E+01  3.5266870E+03
 1.5539722E+01  3.5296492E+03
 1.5564970E+01  3.5304399E+03
 1.5590218E+01  3.5319832E+03
 1.5615464E+01  3.5366086E+03
 1.5640712E+01  3.5450347E+03
 1.5665959E+01  3.5497544E+03
 1.5691206E+01  3.5479060E+03
 1.5716454E+01  3.5371934E+03
 1.5741701E+01  3.5260925E+03
 1.5766949E+01  3.5229927E+03
 1.5792195E+01  3.5265874E+03
 1.5817443E+01  3.5295869E+03
 1.5842690E+01  3.5241973E+03
 1.5867938E+01  3.5111533E+03
 1.5893185E+01  3.4983191E+03
 1.5918432E+01  3.4954424E+03
 1.5943680E+01  3.5078027E+03
 1.5968926E+01  3.5241067E+03
 1.5994174E+01  3.5210979E+03
 1.6019421E+01  3.5245098E+03
 1.6044668E+01  3.5525676E+03
 1.6069916E+01  3.5608284E+03
 1.6095163E+01  3.5674534E+03
 1.6120411E+01  3.5739595E+03
 1.6145658E+01  3.5816028E+03
 1.6170906E+01  3.5930586E+03
 1.6196154E+01  3.6017522E+03
 1.6221399E+01  3.6007109E+03
 1.6246647E+01  3.5882148E+03
 1.6271894E+01  3.5678423E+03
 1.6297142E+01  3.5478508E+03
 1.6322390E+01  3.5319473E+03
 1.6347637E+01  3.5174556E+03
 1.6372885E+01  3.5054614E+03
 1.6398130E+01  3.5007825E+03
 1.6423378E+01  3.4993455E+03
 1.6448626E+01  3.5056155E+03
 1.6473873E+01  3.5045503E+03
 1.6499121E+01  3.4874844E+03
 1.6524368E+01  3.4643784E+03
 1.6549616E+01  3.4454404E+03
 1.6574862E+01  3.4333076E+03
 1.6600109E+01  3.4322214E+03
 1.6625357E+01  3.4419199E+03
 1.6650604E+01  3.4550667E+03
 1.6675852E+01  3.4628320E+03
 1.6701099E+01  3.4611316E+03
 1.6726347E+01  3.4525708E+03
 1.6751595E+01  3.4438909E+03
 1.6776840E+01  3.4327217E+03
 1.6802088E+01  3.4308049E+03
 1.6827335E+01  3.4357744E+03
 1.6852583E+01  3.4439412E+03
 1.6877831E+01  3.4522678E+03
 1.6903078E+01  3.4523889E+03
 1.6928326E+01  3.4447500E+03
 1.6953571E+01  3.4303320E+03
 1.6978819E+01  3.4152393E+03
 1.7004066E+01  3.4055723E+03
 1.7029314E+01  3.4006641E+03
 1.7054562E+01  3.3898672E+03
 1.7079809E+01  3.3787100E+03
 1.7105057E+01  3.3630190E+03
 1.7130304E+01  3.3423789E+03
 1.7155550E+01  3.3200078E+03
 1.7180798E+01  3.2987766E+03
 1.7206045E+01  3.2850361E+03
 1.7231293E+01  3.2671692E+03
 1.7256540E+01  3.2509995E+03
 1.7281788E+01  3.2364673E+03
 1.7307035E+01  3.2191475E+03
 1.7332281E+01  3.2043257E+03
 1.7357529E+01  3.1991782E+03
 1.7382776E+01  3.1937117E+03
 1.7408024E+01  3.1877705E+03
 1.7433271E+01  3.1859326E+03
 1.7458519E+01  3.1893777E+03
 1.7483767E+01  3.1911919E+03
 1.7509012E+01  3.1905256E+03
 1.7534260E+01  3.1854124E+03
 1.7559507E+01  3.1778235E+03
 1.7584755E+01  3.1722681E+03
 1.7610003E+01  3.1731138E+03
 1.7635250E+01  3.1836887E+03
 1.7660498E+01  3.1970764E+03
 1.7685745E+01  3.2019836E+03
 1.7710991E+01  3.2003452E+03
 1.7736238E+01  3.2000781E+03
 1.7761486E+01  3.2018176E+03
 1.7786734E+01  3.2049290E+03
 1.7811981E+01  3.2081992E+03
 1.7837229E+01  3.2116799E+03
 1.7862476E+01  3.2107102E+03
 1.7887722E+01  3.2090146E+03
 1.7912970E+01  3.2148975E+03
 1.7938217E+01  3.2240757E+03
 1.7963465E+01  3.2326191E+03
 1.7988712E+01  3.2364319E+03
 1.8013960E+01  3.2362065E+03
 1.8039207E+01  3.2320254E+03
 1.8064453E+01  3.2260913E+03
 1.8089701E+01  3.2265322E+03
 1.8114948E+01  3.2232737E+03
 1.8140196E+01  3.2161162E+03
 1.8165443E+01  3.2108945E+03
 1.8190691E+01  3.2071846E+03
 1.8215939E+01  3.2051936E+03
 1.8241186E+01  3.2035779E+03
 1.8266432E+01  3.2029839E+03
 1.8291679E+01  3.2065559E+03
 1.8316927E+01  3.2072292E+03
 1.8342175E+01  3.2055801E+03
 1.8367422E+01  3.2070090E+03
 1.8392670E+01  3.2078064E+03
 1.8417917E+01  3.2070977E+03
 1.8443163E+01  3.2028098E+03
 1.8468410E+01  3.1970942E+03
 1.8493658E+01  3.1944229E+03
 1.8518906E+01  3.1942712E+03
 1.8544153E+01  3.1933330E+03
 1.8569401E+01  3.1937769E+03
 1.8594648E+01  3.1962078E+03
 1.8619896E+01  3.1975017E+03
 1.8645142E+01  3.2022703E+03
 1.8670389E+01  3.2059387E+03
 1.8695637E+01  3.2006785E+03
 1.8720884E+01  3.1892383E+03
 1.8746132E+01  3.1750117E+03
 1.8771379E+01  3.1628220E+03
 1.8796627E+01  3.1550454E+03
 1.8821873E+01  3.1516255E+03
 1.8847120E+01  3.1487957E+03
 1.8872368E+01  3.1437793E+03
 1.8897615E+01  3.1410598E+03
 1.8922863E+01  3.1385696E+03
 1.8948111E+01  3.1374172E+03
 1.8973358E+01  3.1301521E+03
 1.8998604E+01  3.1201699E+03
 1.9023851E+01  3.1120747E+03
 1.9049099E+01  3.1058633E+03
 1.9074347E+01  3.1041045E+03
 1.9099594E+01  3.1011143E+03
 1.9124842E+01  3.1004883E+03
 1.9150089E+01  3.0990081E+03
 1.9175337E+01  3.0941406E+03
 1.9200583E+01  3.0887039E+03
 1.9225830E+01  3.0855571E+03
 1.9251078E+01  3.0830164E+03
 1.9276325E+01  3.0800078E+03
 1.9301573E+01  3.0761592E+03
 1.9326820E+01  3.0749265E+03
 1.9352068E+01  3.0734436E+03
 1.9377314E+01  3.0755408E+03
 1.9402561E+01  3.0752681E+03
 1.9427809E+01  3.0773931E+03
 1.9453056E+01  3.0800205E+03
 1.9478304E+01  3.0803765E+03
 1.9503551E+01  3.0792256E+03
 1.9528799E+01  3.0736462E+03
 1.9554045E+01  3.0674390E+03
 1.9579292E+01  3.0655337E+03
 1.9604540E+01  3.0625828E+03
 1.9629787E+01  3.0632656E+03
 1.9655035E+01  3.0610837E+03
 1.9680283E+01  3.0552805E+03
 1.9705530E+01  3.0508113E+03
 1.9730778E+01  3.0447041E+03
 1.9756023E+01  3.0363369E+03
 1.9781271E+01  3.0301333E+03
 1.9806519E+01  3.0220371E+03
 1.9831766E+01  3.0120269E+03
 1.9857014E+01  2.9986223E+03
 1.9882261E+01  2.9880503E+03
 1.9907509E+01  2.9797190E+03
 1.9932755E+01  2.9721370E+03
 1.9958002E+01  2.9648245E+03
 1.9983250E+01  2.9582764E+03
 2.0008497E+01  2.9503904E+03
 2.0033745E+01  2.9422278E+03
 2.0058992E+01  2.9347363E+03
 2.0084240E+01  2.9251458E+03
 2.0109488E+01  2.9145354E+03
 2.0134733E+01  2.9086116E+03
 2.0159981E+01  2.9060471E+03
 2.0185228E+01  2.9100676E+03
 2.0210476E+01  2.9136396E+03
 2.0235723E+01  2.9159382E+03
 2.0260971E+01  2.9178806E+03
 2.0286219E+01  2.9192881E+03
 2.0311464E+01  2.9200488E+03
 2.0336712E+01  2.9193579E+03
 2.0361959E+01  2.9185432E+03
 2.0387207E+01  2.9169714E+03
 2.0412455E+01  2.9170435E+03
 2.0437702E+01  2.9176956E+03
 2.0462950E+01  2.9184048E+03
 2.0488195E+01  2.9184563E+03
 2.0513443E+01  2.9223245E+03
 2.0538691E+01  2.9270496E+03
 2.0563938E+01  2.9320532E+03
 2.0589186E+01  2.9332021E+03
 2.0614433E+01  2.9337009E+03
 2.0639681E+01  2.9331997E+03
 2.0664928E+01  2.9315237E+03
 2.0690174E+01  2.9272417E+03
 2.0715422E+01  2.9229919E+03
 2.0740669E+01  2.9210151E+03
 2.0765917E+01  2.9226289E+03
 2.0791164E+01  2.9215381E+03
 2.0816412E+01  2.9181792E+03
 2.0841660E+01  2.9166450E+03
 2.0866905E+01  2.9174802E+03
 2.0892153E+01  2.9181746E+03
 2.0917400E+01  2.9171814E+03
 2.0942648E+01  2.9155659E+03
 2.0967896E+01  2.9135769E+03
 2.0993143E+01  2.9127666E+03
 2.1018391E+01  2.9161714E+03
 2.1043636E+01  2.9166770E+03
 2.1068884E+01  2.9165032E+03
 2.1094131E+01  2.9202583E+03
 2.1119379E+01  2.9197576E+03
 2.1144627E+01  2.9198682E+03
 2.1169874E+01  2.9186199E+03
 2.1195122E+01  2.9138347E+03
 2.1220369E+01  2.9095898E+03
 2.1245615E+01  2.9085310E+03
 2.1270863E+01  2.9057573E+03
 2.1296110E+01  2.9005608E+03
 2.1321358E+01  2.8976165E+03
 2.1346605E+01  2.8942649E+03
 2.1371853E+01  2.8909460E+03
 2.1397100E+01  2.8880298E+03
 2.1422346E+01  2.8852102E+03
 2.1447594E+01  2.8813940E+03
 2.1472841E+01  2.8795361E+03
 2.1498089E+01  2.8764812E+03
 2.1523336E+01  2.8740691E+03
 2.1548584E+01  2.8697395E+03
 2.1573832E+01  2.8652427E+03
 2.1599079E+01  2.8634824E+03
 2.1624325E+01  2.8591580E+03
 2.1649572E+01  2.8513711E+03
 2.1674820E+01  2.8462615E+03
 2.1700068E+01  2.8404038E+03
 2.1725315E+01  2.8329390E+03
 2.1750563E+01  2.8285383E+03
 2.1775810E+01  2.8246069E+03
 2.1801056E+01  2.8215059E+03
 2.1826303E+01  2.8221238E+03
 2.1851551E+01  2.8219219E+03
 2.1876799E+01  2.8228301E+03
 2.1902046E+01  2.8204490E+03
 2.1927294E+01  2.8120999E+03
 2.1952541E+01  2.8004722E+03
 2.1977787E+01  2.7843999E+03
 2.2003035E+01  2.7698555E+03
 2.2028282E+01  2.7596196E+03
 2.2053530E+01  2.7494805E+03
 2.2078777E+01  2.7400742E+03
 2.2104025E+01  2.7272332E+03
 2.2129272E+01  2.7150647E+03
 2.2154520E+01  2.7056755E+03
 2.2179766E+01  2.6950725E+03
 2.2205013E+01  2.7006333E+03
 2.2230261E+01  2.7154075E+03
 2.2255508E+01  2.7213408E+03
 2.2280756E+01  2.7239243E+03
 2.2306004E+01  2.7255239E+03
 2.2331251E+01  2.7276174E+03
 2.2356497E+01  2.7255811E+03
 2.2381744E+01  2.7256953E+03
 2.2406992E+01  2.7270959E+03
 2.2432240E+01  2.7246921E+03
 2.2457487E+01  2.7272998E+03
 2.2482735E+01  2.7284031E+03
 2.2507982E+01  2.7272617E+03
 2.2533228E+01  2.7288823E+03
 2.2558475E+01  2.7271177E+03
 2.2583723E+01  2.7251292E+03
 2.2608971E+01  2.7239614E+03
 2.2634218E+01  2.7232778E+03
 2.2659466E+01  2.7200337E+03
 2.2684713E+01  2.7166943E+03
 2.2709961E+01  2.7142874E+03
 2.2735207E+01  2.7107690E+03
 2.2760454E+01  2.7088679E+03
 2.2785702E+01  2.7070059E+03
 2.2810949E+01  2.7028386E+03
 2.2836197E+01  2.7035532E+03
 2.2861444E+01  2.7005420E+03
 2.2886692E+01  2.7007500E+03
 2.2911938E+01  2.6995332E+03
 2.2937185E+01  2.6969084E+03
 2.2962433E+01  2.6952346E+03
 2.2987680E+01  2.6933091E+03
 2.3012928E+01  2.6917983E+03
 2.3038176E+01  2.6936841E+03
 2.3063423E+01  2.6965620E+03
 2.3088671E+01  2.6956992E+03
 2.3113916E+01  2.6921260E+03
 2.3139164E+01  2.6891829E+03
 2.3164412E+01  2.6880642E+03
 2.3189659E+01  2.6895452E+03
 2.3214907E+01  2.6892322E+03
 2.3240154E+01  2.6881182E+03
 2.3265402E+01  2.6649177E+03
 2.3290648E+01  2.6722776E+03
 2.3315895E+01  2.6771550E+03
 2.3341143E+01  2.6802856E+03
 2.3366390E+01  2.6832729E+03
 2.3391638E+01  2.6813230E+03
 2.3416885E+01  2.6794280E+03
 2.3442133E+01  2.6789514E+03
 2.3467379E+01  2.6820461E+03
 2.3492626E+01  2.6815249E+03
 2.3517874E+01  2.6816475E+03
 2.3543121E+01  2.6818362E+03
 2.3568369E+01  2.6842542E+03
 2.3593616E+01  2.6822559E+03
 2.3618864E+01  2.6766577E+03
 2.3644112E+01  2.6754763E+03
 2.3669357E+01  2.6745603E+03
 2.3694605E+01  2.6726863E+03
 2.3719852E+01  2.6730586E+03
 2.3745100E+01  2.6736138E+03
 2.3770348E+01  2.6750046E+03
 2.3795595E+01  2.6739314E+03
 2.3820843E+01  2.6747341E+03
 2.3846088E+01  2.6744744E+03
 2.3871336E+01  2.6708123E+03
 2.3896584E+01  2.6672659E+03
 2.3921831E+01  2.6661255E+03
 2.3947079E+01  2.6646208E+03
 2.3972326E+01  2.6611675E+03
 2.3997574E+01  2.6601853E+03
 2.4022820E+01  2.6611440E+03
 2.4048067E+01  2.6594082E+03
 2.4073315E+01  2.6565137E+03
 2.4098562E+01  2.6587952E+03
 2.4123810E+01  2.6578362E+03
 2.4149057E+01  2.6529988E+03
 2.4174305E+01  2.6507588E+03
 2.4199553E+01  2.6512939E+03
 2.4224798E+01  2.6483997E+03
 2.4250046E+01  2.6445322E+03
 2.4275293E+01  2.6425913E+03
 2.4300541E+01  2.6422034E+03
 2.4325788E+01  2.6390916E+03
 2.4351036E+01  2.6377283E+03
 2.4376284E+01  2.6354673E+03
 2.4401529E+01  2.6342686E+03
 2.4426777E+01  2.6320713E+03
 2.4452024E+01  2.6299915E+03
 2.4477272E+01  2.6296418E+03
 2.4502520E+01  2.6253352E+03
 2.4527767E+01  2.6210154E+03
 2.4553015E+01  2.6198174E+03
 2.4578262E+01  2.6200466E+03
 2.4603508E+01  2.6164695E+03
 2.4628756E+01  2.6136484E+03
 2.4654003E+01  2.6123337E+03
 2.4679251E+01  2.6101165E+03
 2.4704498E+01  2.6058345E+03
 2.4729746E+01  2.6024348E+03
 2.4754993E+01  2.6013767E+03
 2.4780239E+01  2.5994797E+03
 2.4805487E+01  2.5959548E+03
 2.4830734E+01  2.5951750E+03
 2.4855982E+01  2.5943262E+03
 2.4881229E+01  2.5927339E+03
 2.4906477E+01  2.5898347E+03
 2.4931725E+01  2.5897004E+03
 2.4956970E+01  2.5889426E+03
 2.4982218E+01  2.5863020E+03
 2.5007465E+01  2.5858352E+03
 2.5032713E+01  2.5843740E+03
 2.5057961E+01  2.5799585E+03
 2.5083208E+01  2.5750881E+03
 2.5108456E+01  2.5739233E+03
 2.5133703E+01  2.5732881E+03
 2.5158949E+01  2.5708044E+03
 2.5184196E+01  2.5690286E+03
 2.5209444E+01  2.5688057E+03
 2.5234692E+01  2.5671509E+03
 2.5259939E+01  2.5647654E+03
 2.5285187E+01  2.5617693E+03
 2.5310434E+01  2.5611445E+03
 2.5335680E+01  2.5612485E+03
 2.5360928E+01  2.5582878E+03
 2.5386175E+01  2.5566353E+03
 2.5411423E+01  2.5549666E+03
 2.5436670E+01  2.5539910E+03
 2.5461918E+01  2.5510051E+03
 2.5487165E+01  2.5505950E+03
 2.5512411E+01  2.5497510E+03
 2.5537659E+01  2.5490603E+03
 2.5562906E+01  2.5471387E+03
 2.5588154E+01  2.5452358E+03
 2.5613401E+01  2.5424885E+03
 2.5638649E+01  2.5425996E+03
 2.5663897E+01  2.5419700E+03
 2.5689144E+01  2.5416301E+03
 2.5714390E+01  2.5408274E+03
 2.5739637E+01  2.5406289E+03
 2.5764885E+01  2.5391169E+03
 2.5790133E+01  2.5369177E+03
 2.5815380E+01  2.5331350E+03
 2.5840628E+01  2.5311790E+03
 2.5865875E+01  2.5332998E+03
 2.5891121E+01  2.5356179E+03
 2.5916368E+01  2.5342185E+03
 2.5941616E+01  2.5332371E+03
 2.5966864E+01  2.5319487E+03
 2.5992111E+01  2.5295635E+03
 2.6017359E+01  2.5316917E+03
 2.6042606E+01  2.5289988E+03
 2.6067854E+01  2.5289683E+03
 2.6093100E+01  2.5282825E+03
 2.6118347E+01  2.5279692E+03
 2.6143595E+01  2.5256033E+03
 2.6168842E+01  2.5230317E+03
 2.6194090E+01  2.5232866E+03
 2.6219337E+01  2.5245503E+03
 2.6244585E+01  2.5235942E+03
 2.6269831E+01  2.5222808E+03
 2.6295078E+01  2.5226431E+03
 2.6320326E+01  2.5232039E+03
 2.6345573E+01  2.5210764E+03
 2.6370821E+01  2.5165823E+03
 2.6396069E+01  2.5167207E+03
 2.6421316E+01  2.5176870E+03
 2.6446562E+01  2.5163789E+03
 2.6471809E+01  2.5115076E+03
 2.6497057E+01  2.5102878E+03
 2.6522305E+01  2.5090991E+03
 2.6547552E+01  2.5085398E+03
 2.6572800E+01  2.5084585E+03
 2.6598047E+01  2.5028647E+03
 2.6623295E+01  2.5024326E+03
 2.6648540E+01  2.5017246E+03
 2.6673788E+01  2.4992832E+03
 2.6699036E+01  2.4975862E+03
 2.6724283E+01  2.4959707E+03
 2.6749531E+01  2.4968059E+03
 2.6774778E+01  2.4954343E+03
 2.6800026E+01  2.4916052E+03
 2.6825272E+01  2.4903914E+03
 2.6850519E+01  2.4894143E+03
 2.6875767E+01  2.4893401E+03
 2.6901014E+01  2.4875613E+03
 2.6926262E+01  2.4856196E+03
 2.6951509E+01  2.4826069E+03
 2.6976757E+01  2.4831672E+03
 2.7002003E+01  2.4830703E+03
 2.7027250E+01  2.4806509E+03
 2.7052498E+01  2.4782190E+03
 2.7077745E+01  2.4756892E+03
 2.7102993E+01  2.4733259E+03
 2.7128241E+01  2.4728198E+03
 2.7153488E+01  2.4700786E+03
 2.7178736E+01  2.4667136E+03
 2.7203981E+01  2.4648210E+03
 2.7229229E+01  2.4652422E+03
 2.7254477E+01  2.4664719E+03
 2.7279724E+01  2.4652415E+03
 2.7304972E+01  2.4629314E+03
 2.7330219E+01  2.4591182E+03
 2.7355467E+01  2.4571311E+03
 2.7380713E+01  2.4536335E+03
 2.7405960E+01  2.4525825E+03
 2.7431208E+01  2.4544883E+03
 2.7456455E+01  2.4546536E+03
 2.7481703E+01  2.4538906E+03
 2.7506950E+01  2.4524402E+03
 2.7532198E+01  2.4522996E+03
 2.7557446E+01  2.4500254E+03
 2.7582691E+01  2.4481675E+03
 2.7607939E+01  2.4472478E+03
 2.7633186E+01  2.4464590E+03
 2.7658434E+01  2.4475596E+03
 2.7683681E+01  2.4456243E+03
 2.7708929E+01  2.4411506E+03
 2.7734177E+01  2.4398030E+03
 2.7759422E+01  2.4384182E+03
 2.7784670E+01  2.4358447E+03
 2.7809917E+01  2.4342651E+03
 2.7835165E+01  2.4318972E+03
 2.7860413E+01  2.4316677E+03
 2.7885660E+01  2.4286096E+03
 2.7910908E+01  2.4274692E+03
 2.7936153E+01  2.4269705E+03
 2.7961401E+01  2.4251555E+03
 2.7986649E+01  2.4228994E+03
 2.8011896E+01  2.4234998E+03
 2.8037144E+01  2.4224412E+03
 2.8062391E+01  2.4227878E+03
 2.8087639E+01  2.4195010E+03
 2.8112886E+01  2.4168062E+03
 2.8138132E+01  2.4109136E+03
 2.8163380E+01  2.4023477E+03
 2.8188627E+01  2.3929746E+03
 2.8213875E+01  2.3850308E+03
 2.8239122E+01  2.3737419E+03
 2.8264370E+01  2.3642449E+03
 2.8289618E+01  2.3522886E+03
 2.8314863E+01  2.3398206E+03
 2.8340111E+01  2.3286348E+03
 2.8365358E+01  2.3135364E+03
 2.8390606E+01  2.3019341E+03
 2.8415854E+01  2.3070525E+03
 2.8441101E+01  2.3269824E+03
 2.8466349E+01  2.3344285E+03
 2.8491594E+01  2.3383181E+03
 2.8516842E+01  2.3435061E+03
 2.8542089E+01  2.3460183E+03
 2.8567337E+01  2.3481003E+03
 2.8592585E+01  2.3501621E+03
 2.8617832E+01  2.3524390E+03
 2.8643080E+01  2.3536604E+03
 2.8668327E+01  2.3518135E+03
 2.8693573E+01  2.3503142E+03
 2.8718821E+01  2.3517322E+03
 2.8744068E+01  2.3546638E+03
 2.8769316E+01  2.3566409E+03
 2.8794563E+01  2.3559441E+03
 2.8819811E+01  2.3557529E+03
 2.8845058E+01  2.3563406E+03
 2.8870304E+01  2.3554329E+03
 2.8895552E+01  2.3536941E+03
 2.8920799E+01  2.3555098E+03
 2.8946047E+01  2.3591401E+03
 2.8971294E+01  2.3601316E+03
 2.8996542E+01  2.3568132E+03
 2.9021790E+01  2.3553347E+03
 2.9047037E+01  2.3566213E+03
 2.9072283E+01  2.3528196E+03
 2.9097530E+01  2.3520498E+03
 2.9122778E+01  2.3531360E+03
 2.9148026E+01  2.3502056E+03
 2.9173273E+01  2.3548508E+03
 2.9198521E+01  2.3532705E+03
 2.9223768E+01  2.3506357E+03
 2.9249014E+01  2.3497527E+03
 2.9274261E+01  2.3505579E+03
 2.9299509E+01  2.3486609E+03
 2.9324757E+01  2.3449954E+03
 2.9350004E+01  2.3470769E+03
 2.9375252E+01  2.3494683E+03
 2.9400499E+01  2.3464294E+03
 2.9425745E+01  2.3424512E+03
 2.9450993E+01  2.3378472E+03
 2.9476240E+01  2.3298325E+03
 2.9501488E+01  2.3206423E+03
 2.9526735E+01  2.3074246E+03
 2.9551983E+01  2.2891731E+03
 2.9577230E+01  2.2755037E+03
 2.9602478E+01  2.2915791E+03
 2.9627724E+01  2.3005344E+03
 2.9652971E+01  2.3052773E+03
 2.9678219E+01  2.3089756E+03
 2.9703466E+01  2.3083899E+03
 2.9728714E+01  2.3096101E+03
 2.9753962E+01  2.3097998E+03
 2.9779209E+01  2.3140518E+03
 2.9804455E+01  2.3126992E+03
 2.9829702E+01  2.3124336E+03
 2.9854950E+01  2.3062971E+03
 2.9880198E+01  2.3054377E+03
 2.9905445E+01  2.3051235E+03
 2.9930693E+01  2.3049050E+03
 2.9955940E+01  2.3050889E+03
 2.9981186E+01  2.3028015E+03
 3.0006433E+01  2.3058420E+03
 3.0031681E+01  2.3044001E+03
 3.0056929E+01  2.3062666E+03
 3.0082176E+01  2.3042097E+03
 3.0107424E+01  2.2989114E+03
 3.0132671E+01  2.2996838E+03
 3.0157919E+01  2.2987761E+03
 3.0183165E+01  2.2960562E+03
 3.0208412E+01  2.2964319E+03
 3.0233660E+01  2.2982283E+03
 3.0258907E+01  2.2949353E+03
 3.0284155E+01  2.2951104E+03
 3.0309402E+01  2.2967063E+03
 3.0334650E+01  2.2975020E+03
 3.0359896E+01  2.2940168E+03
 3.0385143E+01  2.2947629E+03
 3.0410391E+01  2.2961306E+03
 3.0435638E+01  2.2961711E+03
 3.0460886E+01  2.3017979E+03
 3.0486134E+01  2.2846506E+03
 3.0511381E+01  2.2849351E+03
 3.0536629E+01  2.2943054E+03
 3.0561874E+01  2.2877708E+03
 3.0587122E+01  2.2849148E+03
 3.0612370E+01  2.2838645E+03
 3.0637617E+01  2.2825579E+03
 3.0662865E+01  2.2855854E+03
 3.0688112E+01  2.2830962E+03
 3.0713360E+01  2.2805391E+03
 3.0738605E+01  2.2785950E+03
 3.0763853E+01  2.2834038E+03
 3.0789101E+01  2.2692849E+03
 3.0814348E+01  2.2776458E+03
 3.0839596E+01  2.2773252E+03
 3.0864843E+01  2.2780962E+03
 3.0890091E+01  2.2748987E+03
 3.0915337E+01  2.2740186E+03
 3.0940584E+01  2.2737554E+03
 3.0965832E+01  2.2729517E+03
 3.0991079E+01  2.2728308E+03
 3.1016327E+01  2.2716426E+03
 3.1041574E+01  2.2719294E+03
 3.1066822E+01  2.2735588E+03
 3.1092070E+01  2.2750320E+03
 3.1117315E+01  2.2701812E+03
 3.1142563E+01  2.2686548E+03
 3.1167810E+01  2.2689124E+03
 3.1193058E+01  2.2707788E+03
 3.1218306E+01  2.2646436E+03
 3.1243553E+01  2.2636470E+03
 3.1268801E+01  2.2657224E+03
 3.1294046E+01  2.2654817E+03
 3.1319294E+01  2.2616978E+03
 3.1344542E+01  2.2634202E+03
 3.1369789E+01  2.2605593E+03
 3.1395037E+01  2.2623127E+03
 3.1420284E+01  2.2635938E+03
 3.1445532E+01  2.2584905E+03
 3.1470778E+01  2.2595935E+03
 3.1496025E+01  2.2586824E+03
 3.1521273E+01  2.2576350E+03
 3.1546520E+01  2.2580737E+03
 3.1571768E+01  2.2544045E+03
 3.1597015E+01  2.2528184E+03
 3.1622263E+01  2.2547600E+03
 3.1647511E+01  2.2565527E+03
 3.1672756E+01  2.2540549E+03
 3.1698004E+01  2.2545620E+03
 3.1723251E+01  2.2554570E+03
 3.1748499E+01  2.2553752E+03
 3.1773746E+01  2.2521187E+03
 3.1798994E+01  2.2524094E+03
 3.1824242E+01  2.2522588E+03
 3.1849487E+01  2.2477346E+03
 3.1874735E+01  2.2453237E+03
 3.1899982E+01  2.2404094E+03
 3.1925230E+01  2.2081104E+03
 3.1950478E+01  2.2315818E+03
 3.1975725E+01  2.2367817E+03
 3.2000973E+01  2.2388274E+03
 3.2026218E+01  2.2404333E+03
 3.2051468E+01  2.2381482E+03
 3.2076714E+01  2.2352759E+03
 3.2101963E+01  2.2390396E+03
 3.2127209E+01  2.2399622E+03
 3.2152454E+01  2.2370020E+03
 3.2177704E+01  2.2367017E+03
 3.2202950E+01  2.2330488E+03
 3.2228199E+01  2.2322698E+03
 3.2253445E+01  2.2341443E+03
 3.2278694E+01  2.2344668E+03
 3.2303940E+01  2.2332471E+03
 3.2329185E+01  2.2311934E+03
 3.2354435E+01  2.2294548E+03
 3.2379681E+01  2.2294482E+03
 3.2404930E+01  2.2252366E+03
 3.2430176E+01  2.2301675E+03
 3.2455425E+01  2.2320840E+03
 3.2480671E+01  2.2284885E+03
 3.2505917E+01  2.2260415E+03
 3.2531166E+01  2.2235242E+03
 3.2556412E+01  2.2253428E+03
 3.2581661E+01  2.2279727E+03
 3.2606907E+01  2.2284597E+03
 3.2632156E+01  2.2289236E+03
 3.2657402E+01  2.2279817E+03
 3.2682648E+01  2.2259397E+03
 3.2707897E+01  2.2234304E+03
 3.2733143E+01  2.2246807E+03
 3.2758392E+01  2.2286917E+03
 3.2783638E+01  2.2252480E+03
 3.2808887E+01  2.2294890E+03
 3.2834133E+01  2.2297112E+03
 3.2859383E+01  2.2236699E+03
 3.2884628E+01  2.2207905E+03
 3.2909874E+01  2.2253230E+03
 3.2935123E+01  2.2269988E+03
 3.2960369E+01  2.2311980E+03
 3.2985619E+01  2.2280925E+03
 3.3010864E+01  2.2241731E+03
 3.3036114E+01  2.2239873E+03
 3.3061359E+01  2.2255032E+03
 3.3086605E+01  2.2263528E+03
 3.3111855E+01  2.2275344E+03
 3.3137100E+01  2.2303054E+03
 3.3162350E+01  2.2314233E+03
 3.3187595E+01  2.2291841E+03
 3.3212845E+01  2.2253542E+03
 3.3238091E+01  2.2273320E+03
 3.3263336E+01  2.2265496E+03
 3.3288586E+01  2.2266960E+03
 3.3313831E+01  2.2248782E+03
 3.3339081E+01  2.2252627E+03
 3.3364326E+01  2.2288850E+03
 3.3389576E+01  2.2271013E+03
 3.3414822E+01  2.2247532E+03
 3.3440067E+01  2.2260964E+03
 3.3465317E+01  2.2262292E+03
 3.3490562E+01  2.2218298E+03
 3.3515812E+01  2.2248335E+03
 3.3541058E+01  2.2231990E+03
 3.3566307E+01  2.2245193E+03
 3.3591553E+01  2.2238254E+03
 3.3616798E+01  2.2228162E+03
 3.3642048E+01  2.2240559E+03
 3.3667294E+01  2.2231960E+03
 3.3692543E+01  2.2194646E+03
 3.3717789E+01  2.2188650E+03
 3.3743038E+01  2.2182471E+03
 3.3768284E+01  2.2199241E+03
 3.3793533E+01  2.2234202E+03
 3.3818779E+01  2.2245364E+03
 3.3844025E+01  2.2272073E+03
 3.3869274E+01  2.2225496E+03
 3.3894520E+01  2.2246375E+03
 3.3919769E+01  2.2277383E+03
 3.3945015E+01  2.2273684E+03
 3.3970264E+01  2.2274016E+03
 3.3995510E+01  2.2324136E+03
 3.4020756E+01  2.2388240E+03
 3.4046005E+01  2.2232632E+03
 3.4071251E+01  2.2226545E+03
 3.4096500E+01  2.2330898E+03
 3.4121746E+01  2.2362554E+03
 3.4146996E+01  2.2394929E+03
 3.4172241E+01  2.2361765E+03
 3.4197487E+01  2.2347573E+03
 3.4222736E+01  2.2341375E+03
 3.4247982E+01  2.2350256E+03
 3.4273232E+01  2.2396262E+03
 3.4298477E+01  2.2391030E+03
 3.4323727E+01  2.2364744E+03
 3.4348972E+01  2.2330825E+03
 3.4374218E+01  2.2355222E+03
 3.4399467E+01  2.2358862E+03
 3.4424713E+01  2.2331589E+03
 3.4449963E+01  2.2298423E+03
 3.4475208E+01  2.2301804E+03
 3.4500458E+01  2.2293057E+03
 3.4525703E+01  2.2302375E+03
 3.4550949E+01  2.2304910E+03
 3.4576199E+01  2.2277104E+03
 3.4601444E+01  2.2229661E+03
 3.4626694E+01  2.2205615E+03
 3.4651939E+01  2.2093333E+03
 3.4677189E+01  2.1795288E+03
 3.4702435E+01  2.1306270E+03
 3.4727680E+01  2.1224160E+03
 3.4752930E+01  2.1067622E+03
 3.4778175E+01  2.0975293E+03
 3.4803425E+01  2.1184663E+03
 3.4828671E+01  2.1308884E+03
 3.4853920E+01  2.1374800E+03
 3.4879166E+01  2.1406643E+03
 3.4904415E+01  2.1423948E+03
 3.4929661E+01  2.1407573E+03
 3.4954906E+01  2.1521946E+03
 3.4980156E+01  2.1529780E+03
 3.5005402E+01  2.1553066E+03
 3.5030651E+01  2.1561128E+03
 3.5055897E+01  2.1526692E+03
 3.5081146E+01  2.1579038E+03
 3.5106392E+01  2.1628540E+03
 3.5131638E+01  2.1627097E+03
 3.5156887E+01  2.1643369E+03
 3.5182133E+01  2.1677856E+03
 3.5207382E+01  2.1698625E+03
 3.5232628E+01  2.1679172E+03
 3.5257877E+01  2.1681211E+03
 3.5283123E+01  2.1680305E+03
 3.5308369E+01  2.1702051E+03
 3.5333618E+01  2.1710051E+03
 3.5358864E+01  2.1672764E+03
 3.5384113E+01  2.1627222E+03
 3.5409359E+01  2.1618521E+03
 3.5434608E+01  2.1636960E+03
 3.5459854E+01  2.1625679E+03
 3.5485100E+01  2.1669150E+03
 3.5510349E+01  2.1638069E+03
 3.5535595E+01  2.1679976E+03
 3.5560844E+01  2.1634426E+03
 3.5586090E+01  2.1589358E+03
 3.5611340E+01  2.1574780E+03
 3.5636585E+01  2.1554500E+03
 3.5661831E+01  2.1579722E+03
 3.5687080E+01  2.1559358E+03
 3.5712326E+01  2.1564666E+03
 3.5737576E+01  2.1610166E+03
 3.5762821E+01  2.1576953E+03
 3.5788071E+01  2.1555322E+03
 3.5813316E+01  2.1548037E+03
 3.5838566E+01  2.1569985E+03
 3.5863811E+01  2.1524956E+03
 3.5889057E+01  2.1523579E+03
 3.5914307E+01  2.1522947E+03
 3.5939552E+01  2.1550693E+03
 3.5964802E+01  2.1489893E+03
 3.5990047E+01  2.1493215E+03
 3.6015297E+01  2.1500339E+03
 3.6040543E+01  2.1451282E+03
 3.6065788E+01  2.1449963E+03
 3.6091038E+01  2.1405366E+03
 3.6116283E+01  2.1444551E+03
 3.6141533E+01  2.1452847E+03
 3.6166779E+01  2.1454343E+03
 3.6192028E+01  2.1486055E+03
 3.6217274E+01  2.1465974E+03
 3.6242519E+01  2.1451233E+03
 3.6267769E+01  2.1416436E+03
 3.6293015E+01  2.1419609E+03
 3.6318264E+01  2.1345879E+03
 3.6343510E+01  2.1380522E+03
 3.6368759E+01  2.1419631E+03
 3.6394005E+01  2.1376641E+03
 3.6419250E+01  2.1358811E+03
 3.6444500E+01  2.1320410E+03
 3.6469746E+01  2.1288533E+03
 3.6494995E+01  2.1299312E+03
 3.6520241E+01  2.1332039E+03
 3.6545490E+01  2.1293132E+03
 3.6570736E+01  2.1298196E+03
 3.6595982E+01  2.1292173E+03
 3.6621231E+01  2.1276399E+03
 3.6646477E+01  2.1300378E+03
 3.6671726E+01  2.1211218E+03
 3.6696972E+01  2.1168088E+03
 3.6722221E+01  2.1295823E+03
 3.6747467E+01  2.1287732E+03
 3.6772717E+01  2.1297563E+03
 3.6797962E+01  2.1240193E+03
 3.6823208E+01  2.1245190E+03
 3.6848457E+01  2.1220217E+03
 3.6873703E+01  2.1192153E+03
 3.6898952E+01  2.1158479E+03
 3.6924198E+01  2.1140938E+03
 3.6949448E+01  2.1172544E+03
 3.6974693E+01  2.1153584E+03
 3.6999939E+01  2.1179824E+03
 3.7025188E+01  2.1239138E+03
 3.7050434E+01  2.1126680E+03
 3.7075684E+01  2.1144045E+03
 3.7100929E+01  2.1141526E+03
 3.7126179E+01  2.1119639E+03
 3.7151424E+01  2.1157117E+03
 3.7176670E+01  2.1109722E+03
 3.7201920E+01  2.1121843E+03
 3.7227165E+01  2.1122839E+03
 3.7252415E+01  2.1150095E+03
 3.7277660E+01  2.1179285E+03
 3.7302910E+01  2.1140381E+03
 3.7328156E+01  2.1145571E+03
 3.7353401E+01  2.1106304E+03
 3.7378651E+01  2.1080984E+03
 3.7403896E+01  2.1037297E+03
 3.7429146E+01  2.1036218E+03
 3.7454391E+01  2.1092024E+03
 3.7479641E+01  2.1019263E+03
 3.7504887E+01  2.1008416E+03
 3.7530132E+01  2.1032292E+03
 3.7555382E+01  2.1049932E+03
 3.7580627E+01  2.1001938E+03
 3.7605877E+01  2.0958625E+03
 3.7631123E+01  2.1001951E+03
 3.7656372E+01  2.0995916E+03
 3.7681618E+01  2.0978574E+03
 3.7706863E+01  2.0976436E+03
 3.7732113E+01  2.0955757E+03
 3.7757359E+01  2.0971692E+03
 3.7782608E+01  2.0893755E+03
 3.7807854E+01  2.0889873E+03
 3.7833103E+01  2.0921682E+03
 3.7858349E+01  2.0917234E+03
 3.7883598E+01  2.0849871E+03
 3.7908844E+01  2.0867234E+03
 3.7934090E+01  2.0906677E+03
 3.7959339E+01  2.0898716E+03
 3.7984585E+01  2.0862891E+03
 3.8009834E+01  2.0881616E+03
 3.8035080E+01  2.0837312E+03
 3.8060329E+01  2.0828240E+03
 3.8085575E+01  2.0776526E+03
 3.8110821E+01  2.0811367E+03
 3.8136070E+01  2.0771575E+03
 3.8161316E+01  2.0842190E+03
 3.8186565E+01  2.0821321E+03
 3.8211811E+01  2.0768418E+03
 3.8237061E+01  2.0750117E+03
 3.8262306E+01  2.0717981E+03
 3.8287552E+01  2.0752590E+03
 3.8312801E+01  2.0743447E+03
 3.8338047E+01  2.0704248E+03
 3.8363297E+01  2.0717021E+03
 3.8388542E+01  2.0676326E+03
 3.8413792E+01  2.0735452E+03
 3.8439037E+01  2.0728987E+03
 3.8464283E+01  2.0688513E+03
 3.8489532E+01  2.0725093E+03
 3.8514778E+01  2.0723237E+03
 3.8540028E+01  2.0718362E+03
 3.8565273E+01  2.0723892E+03
 3.8590523E+01  2.0718569E+03
 3.8615768E+01  2.0302604E+03
 3.8641014E+01  2.0572849E+03
 3.8666264E+01  2.0641829E+03
 3.8691509E+01  2.0642017E+03
 3.8716759E+01  2.0615376E+03
 3.8742004E+01  2.0638599E+03
 3.8767254E+01  2.0580378E+03
 3.8792500E+01  2.0500154E+03
 3.8817749E+01  2.0476335E+03
 3.8842995E+01  2.0484739E+03
 3.8868240E+01  2.0490906E+03
 3.8893490E+01  2.0492012E+03
 3.8918736E+01  2.0511182E+03
 3.8943985E+01  2.0615723E+03
 3.8969231E+01  2.0530242E+03
 3.8994480E+01  2.0473462E+03
 3.9019726E+01  2.0502676E+03
 3.9044971E+01  2.0467758E+03
 3.9070221E+01  2.0536318E+03
 3.9095467E+01  2.0537776E+03
 3.9120716E+01  2.0476644E+03
 3.9145962E+01  2.0461367E+03
 3.9171211E+01  2.0397662E+03
 3.9196457E+01  2.0322280E+03
 3.9221703E+01  2.0456971E+03
 3.9246952E+01  2.0389907E+03
 3.9272198E+01  2.0447761E+03
 3.9297447E+01  2.0411075E+03
 3.9322693E+01  2.0324861E+03
 3.9347942E+01  2.0365171E+03
 3.9373188E+01  2.0218844E+03
 3.9398434E+01  2.0249677E+03
 3.9423683E+01  2.0374203E+03
 3.9448929E+01  2.0350150E+03
 3.9474178E+01  2.0286776E+03
 3.9499424E+01  2.0334960E+03
 3.9524673E+01  2.0195751E+03
 3.9549919E+01  2.0241442E+03
 3.9575165E+01  2.0186580E+03
 3.9600414E+01  2.0172257E+03
 3.9625660E+01  2.0176852E+03
 3.9650909E+01  2.0163158E+03
 3.9676155E+01  2.0122936E+03
 3.9701405E+01  2.0039963E+03
 3.9726650E+01  2.0129258E+03
 3.9751900E+01  2.0148157E+03
 3.9777145E+01  2.0025642E+03
 3.9802391E+01  1.9994238E+03
 3.9827641E+01  1.9918059E+03
 3.9852886E+01  1.9900994E+03
 3.9878136E+01  1.9873949E+03
 3.9903381E+01  1.9836384E+03
 3.9928631E+01  1.9949895E+03
 3.9953876E+01  1.9908507E+03
 3.9979122E+01  1.9882019E+03
 4.0004372E+01  1.9834546E+03
 4.0029617E+01  1.9781023E+03
 4.0054867E+01  1.9734602E+03
 4.0080112E+01  1.9682102E+03
 4.0105362E+01  1.9569086E+03
 4.0130608E+01  1.9575681E+03
 4.0155853E+01  1.9547194E+03
 4.0181103E+01  1.9525514E+03
 4.0206348E+01  1.9510198E+03
 4.0231598E+01  1.9433427E+03
 4.0256844E+01  1.9395344E+03
 4.0282093E+01  1.9314741E+03
 4.0307339E+01  1.9324028E+03
 4.0332584E+01  1.9288845E+03
 4.0357834E+01  1.9194917E+03
 4.0383080E+01  1.9173044E+03
 4.0408329E+01  1.9119119E+03
 4.0433575E+01  1.9122390E+03
 4.0458824E+01  1.9076228E+03
 4.0484070E+01  1.9085009E+03
 4.0509315E+01  1.8935330E+03
 4.0534565E+01  1.8764117E+03
 4.0559811E+01  1.8681710E+03
 4.0585060E+01  1.8696768E+03
 4.0610306E+01  1.8616925E+03
 4.0635555E+01  1.8591418E+03
 4.0660801E+01  1.8491893E+03
 4.0686047E+01  1.8363274E+03
 4.0711296E+01  1.8465189E+03
 4.0736542E+01  1.8349821E+03
 4.0761791E+01  1.8100084E+03
 4.0787037E+01  1.7885793E+03
 4.0812286E+01  1.7632213E+03
 4.0837532E+01  1.7672810E+03
 4.0862782E+01  1.7577573E+03
 4.0888027E+01  1.7475950E+03
 4.0913273E+01  1.7866710E+03
 4.0938522E+01  1.8040354E+03
 4.0963768E+01  1.8214227E+03
 4.0989017E+01  1.8536167E+03
 4.1014263E+01  1.9104768E+03
 4.1039513E+01  1.9588412E+03
 4.1064758E+01  1.9721359E+03
 4.1090004E+01  1.9685177E+03
 4.1115253E+01  1.9623783E+03
 4.1140499E+01  1.9535417E+03
 4.1165749E+01  1.9324576E+03
 4.1190994E+01  1.9066705E+03
 4.1216244E+01  1.9063502E+03
 4.1241489E+01  1.9026187E+03
 4.1266735E+01  1.9036807E+03
 4.1291985E+01  1.8870676E+03
 4.1317230E+01  1.8780226E+03
 4.1342480E+01  1.8642919E+03
 4.1367725E+01  1.8655574E+03
 4.1392975E+01  1.8260048E+03
 4.1418221E+01  1.8052739E+03
 4.1443466E+01  1.8065015E+03
 4.1468716E+01  1.7909268E+03
 4.1493961E+01  1.7475359E+03
 4.1519211E+01  1.7110049E+03
 4.1544456E+01  1.7205477E+03
 4.1569706E+01  1.6398674E+03
 4.1594952E+01  1.6184752E+03
 4.1620197E+01  1.5871287E+03
 4.1645447E+01  1.5486512E+03
 4.1670692E+01  1.4881991E+03
 4.1695942E+01  1.3753264E+03
 4.1721188E+01  1.3157766E+03
 4.1746437E+01  1.0832217E+03
 4.1771683E+01  8.5702588E+02
 4.1796932E+01  7.6289618E+02
 4.1822178E+01  5.9403473E+02
 4.1847424E+01  5.2745892E+02
 4.1872673E+01  4.0367990E+02
 4.1897919E+01  2.3556770E+02
 4.1923168E+01  9.9293381E+01
 4.1948414E+01 -2.9727721E+00
