D:\workspace\KFe2As2-00838.tif: 2-theta Scan
2-Theta Angle (Degrees)
Intensity
       1662
 1.2623658E-02  1.5819899E+03
 3.7870977E-02  1.6026250E+03
 6.3118294E-02  1.6059852E+03
 8.8365607E-02  1.5882582E+03
 1.1361293E-01  1.5936763E+03
 1.3886024E-01  1.6203571E+03
 1.6410756E-01  1.6623223E+03
 1.8935488E-01  1.6992826E+03
 2.1460219E-01  1.7853489E+03
 2.3984951E-01  2.0587781E+03
 2.6509681E-01  2.7830288E+03
 2.9034415E-01  4.1898691E+03
 3.1559145E-01  5.9548237E+03
 3.4083879E-01  7.7776489E+03
 3.6608610E-01  9.4659336E+03
 3.9133340E-01  1.0687570E+04
 4.1658074E-01  1.1298573E+04
 4.4182804E-01  1.1294673E+04
 4.6707535E-01  1.0997078E+04
 4.9232268E-01  1.0760813E+04
 5.1757002E-01  1.0680991E+04
 5.4281729E-01  1.0718935E+04
 5.6806463E-01  1.0760440E+04
 5.9331197E-01  1.0813639E+04
 6.1855924E-01  1.0843007E+04
 6.4380658E-01  1.0841842E+04
 6.6905391E-01  1.0853194E+04
 6.9430119E-01  1.0873066E+04
 7.1954852E-01  1.0876681E+04
 7.4479586E-01  1.1056843E+04
 7.7004319E-01  1.1694404E+04
 7.9529047E-01  1.4190849E+04
 8.2053781E-01  2.3715361E+04
 8.4578514E-01  4.4640195E+04
 8.7103242E-01  6.6451898E+04
 8.9627975E-01  7.2601094E+04
 9.2152709E-01  6.2029777E+04
 9.4677436E-01  3.9514066E+04
 9.7202170E-01  1.9970297E+04
 9.9726903E-01  1.2100813E+04
 1.0225164E+00  9.9759844E+03
 1.0477637E+00  9.2857871E+03
 1.0730109E+00  8.9553145E+03
 1.0982583E+00  8.7208408E+03
 1.1235056E+00  8.5202871E+03
 1.1487529E+00  8.3565625E+03
 1.1740003E+00  8.2244355E+03
 1.1992476E+00  8.1078945E+03
 1.2244948E+00  8.0039629E+03
 1.2497422E+00  7.9037080E+03
 1.2749895E+00  7.7849883E+03
 1.3002368E+00  7.6272451E+03
 1.3254842E+00  7.4984146E+03
 1.3507315E+00  7.3841719E+03
 1.3759788E+00  7.2956768E+03
 1.4012260E+00  7.1786035E+03
 1.4264734E+00  7.0669102E+03
 1.4517207E+00  6.9891885E+03
 1.4769681E+00  6.9096289E+03
 1.5022154E+00  6.8469160E+03
 1.5274627E+00  6.8294565E+03
 1.5527099E+00  6.9196855E+03
 1.5779573E+00  7.4280864E+03
 1.6032046E+00  9.2954443E+03
 1.6284519E+00  1.3285178E+04
 1.6536993E+00  1.7180035E+04
 1.6789466E+00  1.8182156E+04
 1.7041939E+00  1.5884058E+04
 1.7294412E+00  1.1734562E+04
 1.7546885E+00  8.7846797E+03
 1.7799358E+00  7.8137476E+03
 1.8051832E+00  7.5409033E+03
 1.8304305E+00  7.3456650E+03
 1.8556778E+00  7.1807759E+03
 1.8809251E+00  7.1948721E+03
 1.9061724E+00  7.3722856E+03
 1.9314197E+00  7.6867832E+03
 1.9566671E+00  8.2773701E+03
 1.9819144E+00  9.7869697E+03
 2.0071616E+00  1.5139315E+04
 2.0324090E+00  3.2215254E+04
 2.0576563E+00  6.3045688E+04
 2.0829036E+00  8.9530727E+04
 2.1081510E+00  9.3289352E+04
 2.1333983E+00  7.1953273E+04
 2.1586456E+00  3.9892395E+04
 2.1838930E+00  1.8406568E+04
 2.2091403E+00  1.1727367E+04
 2.2343876E+00  1.1610816E+04
 2.2596350E+00  1.2920481E+04
 2.2848821E+00  1.3237456E+04
 2.3101294E+00  1.2057559E+04
 2.3353767E+00  1.0278076E+04
 2.3606241E+00  1.0096509E+04
 2.3858714E+00  1.3942335E+04
 2.4111187E+00  2.1566650E+04
 2.4363661E+00  2.7728223E+04
 2.4616134E+00  2.7948828E+04
 2.4868608E+00  2.2141963E+04
 2.5121081E+00  1.4268456E+04
 2.5373554E+00  9.4772646E+03
 2.5626028E+00  8.1113047E+03
 2.5878501E+00  7.7515327E+03
 2.6130972E+00  7.5072271E+03
 2.6383445E+00  7.3488477E+03
 2.6635919E+00  7.7874551E+03
 2.6888392E+00  8.9772510E+03
 2.7140865E+00  1.0463281E+04
 2.7393339E+00  1.1569514E+04
 2.7645812E+00  1.1601405E+04
 2.7898285E+00  1.1365967E+04
 2.8150759E+00  1.3783868E+04
 2.8403232E+00  2.3611961E+04
 2.8655705E+00  3.9341992E+04
 2.8908179E+00  5.0291289E+04
 2.9160652E+00  4.8543871E+04
 2.9413123E+00  3.5469066E+04
 2.9665596E+00  2.0509316E+04
 2.9918070E+00  1.3061493E+04
 3.0170543E+00  1.2677212E+04
 3.0423017E+00  1.2955295E+04
 3.0675490E+00  1.1537468E+04
 3.0927963E+00  1.0096711E+04
 3.1180437E+00  9.8139697E+03
 3.1432910E+00  1.2915939E+04
 3.1685383E+00  2.2016518E+04
 3.1937857E+00  3.4901336E+04
 3.2190330E+00  4.2809891E+04
 3.2442803E+00  4.1395438E+04
 3.2695274E+00  3.1519875E+04
 3.2947748E+00  2.1818734E+04
 3.3200221E+00  1.8301682E+04
 3.3452694E+00  1.7740490E+04
 3.3705168E+00  1.6234867E+04
 3.3957641E+00  1.3575807E+04
 3.4210114E+00  1.2439667E+04
 3.4462588E+00  1.7294068E+04
 3.4715061E+00  3.0523873E+04
 3.4967535E+00  4.7023496E+04
 3.5220008E+00  5.6467762E+04
 3.5472481E+00  5.3883348E+04
 3.5724955E+00  4.0501574E+04
 3.5977426E+00  2.5787893E+04
 3.6229899E+00  1.7142326E+04
 3.6482372E+00  1.2687045E+04
 3.6734846E+00  9.9170459E+03
 3.6987319E+00  8.1406152E+03
 3.7239792E+00  7.4736851E+03
 3.7492266E+00  8.4577168E+03
 3.7744739E+00  1.2681879E+04
 3.7997212E+00  2.1383096E+04
 3.8249686E+00  3.0582225E+04
 3.8502159E+00  3.4166109E+04
 3.8754632E+00  2.9847715E+04
 3.9007103E+00  2.0284154E+04
 3.9259577E+00  1.1747659E+04
 3.9512050E+00  7.5540132E+03
 3.9764524E+00  6.0412417E+03
 4.0016999E+00  5.4476514E+03
 4.0269470E+00  5.1547773E+03
 4.0521946E+00  5.0015576E+03
 4.0774417E+00  4.9092139E+03
 4.1026888E+00  4.8802622E+03
 4.1279364E+00  4.9577920E+03
 4.1531835E+00  5.2194082E+03
 4.1784310E+00  5.7370068E+03
 4.2036781E+00  6.4462134E+03
 4.2289257E+00  7.1501865E+03
 4.2541728E+00  7.7486948E+03
 4.2794204E+00  8.3317539E+03
 4.3046675E+00  8.8014570E+03
 4.3299150E+00  8.7469668E+03
 4.3551621E+00  8.2586689E+03
 4.3804097E+00  7.3112500E+03
 4.4056568E+00  6.8598960E+03
 4.4309039E+00  7.4148008E+03
 4.4561515E+00  8.5767070E+03
 4.4813986E+00  1.0172140E+04
 4.5066462E+00  1.2537996E+04
 4.5318933E+00  1.5304545E+04
 4.5571408E+00  1.7030516E+04
 4.5823879E+00  1.6752598E+04
 4.6076355E+00  1.4537663E+04
 4.6328826E+00  1.1693213E+04
 4.6581302E+00  9.7542627E+03
 4.6833773E+00  8.7491699E+03
 4.7086248E+00  8.8703652E+03
 4.7338719E+00  1.0895545E+04
 4.7591190E+00  1.4503392E+04
 4.7843666E+00  1.8118359E+04
 4.8096137E+00  1.9474676E+04
 4.8348613E+00  1.7633191E+04
 4.8601084E+00  1.3705115E+04
 4.8853559E+00  9.7085156E+03
 4.9106030E+00  7.2711948E+03
 4.9358506E+00  6.7001143E+03
 4.9610977E+00  7.6197871E+03
 4.9863453E+00  9.3090869E+03
 5.0115924E+00  1.0660701E+04
 5.0368395E+00  1.0973954E+04
 5.0620871E+00  1.0199041E+04
 5.0873342E+00  9.1536006E+03
 5.1125817E+00  9.1386475E+03
 5.1378288E+00  1.0400439E+04
 5.1630764E+00  1.1799135E+04
 5.1883235E+00  1.2131760E+04
 5.2135711E+00  1.1238359E+04
 5.2388182E+00  9.7437891E+03
 5.2640657E+00  8.6165850E+03
 5.2893128E+00  8.3446143E+03
 5.3145604E+00  9.1330654E+03
 5.3398075E+00  1.1716853E+04
 5.3650546E+00  1.5962374E+04
 5.3903022E+00  1.9632871E+04
 5.4155493E+00  2.0230943E+04
 5.4407969E+00  1.8602402E+04
 5.4660439E+00  1.5709130E+04
 5.4912915E+00  1.3695801E+04
 5.5165386E+00  1.2743735E+04
 5.5417862E+00  1.1408317E+04
 5.5670333E+00  9.3075303E+03
 5.5922809E+00  7.3399053E+03
 5.6175280E+00  6.2936582E+03
 5.6427755E+00  6.2726499E+03
 5.6680226E+00  7.3339229E+03
 5.6932697E+00  1.0261598E+04
 5.7185173E+00  1.5356636E+04
 5.7437644E+00  2.0957561E+04
 5.7690120E+00  2.4272912E+04
 5.7942591E+00  2.3496639E+04
 5.8195066E+00  1.9072457E+04
 5.8447537E+00  1.3610861E+04
 5.8700013E+00  9.7799932E+03
 5.8952484E+00  8.4288545E+03
 5.9204960E+00  9.0335801E+03
 5.9457431E+00  1.0360453E+04
 5.9709907E+00  1.1148425E+04
 5.9962378E+00  1.0925446E+04
 6.0214849E+00  1.0028214E+04
 6.0467324E+00  9.3241299E+03
 6.0719795E+00  9.2790098E+03
 6.0972271E+00  9.3837686E+03
 6.1224742E+00  8.8872930E+03
 6.1477218E+00  7.8274697E+03
 6.1729689E+00  6.8487163E+03
 6.1982164E+00  6.5120776E+03
 6.2234635E+00  6.8639268E+03
 6.2487111E+00  7.4089570E+03
 6.2739582E+00  7.6762119E+03
 6.2992058E+00  7.6070464E+03
 6.3244529E+00  7.5821460E+03
 6.3497000E+00  7.9851377E+03
 6.3749475E+00  8.8131436E+03
 6.4001946E+00  9.6225830E+03
 6.4254422E+00  9.8406875E+03
 6.4506893E+00  9.3545732E+03
 6.4759369E+00  8.5253135E+03
 6.5011840E+00  7.6339766E+03
 6.5264316E+00  6.9455908E+03
 6.5516787E+00  6.7637861E+03
 6.5769262E+00  7.1979717E+03
 6.6021733E+00  8.1219434E+03
 6.6274209E+00  9.2211426E+03
 6.6526680E+00  1.0059781E+04
 6.6779151E+00  1.0130544E+04
 6.7031627E+00  9.4962383E+03
 6.7284098E+00  8.8610908E+03
 6.7536573E+00  8.6991553E+03
 6.7789044E+00  8.9255508E+03
 6.8041520E+00  9.1060244E+03
 6.8293991E+00  8.8540322E+03
 6.8546467E+00  8.2161133E+03
 6.8798938E+00  7.5120366E+03
 6.9051414E+00  6.9219971E+03
 6.9303885E+00  6.3981069E+03
 6.9556360E+00  6.0294897E+03
 6.9808831E+00  6.0858867E+03
 7.0061302E+00  6.6862681E+03
 7.0313778E+00  7.6300688E+03
 7.0566249E+00  8.3488740E+03
 7.0818725E+00  8.3957813E+03
 7.1071196E+00  7.8804556E+03
 7.1323671E+00  7.3181313E+03
 7.1576142E+00  7.2405752E+03
 7.1828618E+00  7.7146060E+03
 7.2081089E+00  8.3411768E+03
 7.2333565E+00  8.6077314E+03
 7.2586036E+00  8.5125400E+03
 7.2838511E+00  8.3938457E+03
 7.3090982E+00  8.6078926E+03
 7.3343453E+00  9.1197041E+03
 7.3595929E+00  9.3898828E+03
 7.3848400E+00  9.0366211E+03
 7.4100876E+00  8.0765464E+03
 7.4353347E+00  6.8595244E+03
 7.4605823E+00  5.9316763E+03
 7.4858294E+00  5.5093281E+03
 7.5110769E+00  5.4286812E+03
 7.5363240E+00  5.4936948E+03
 7.5615716E+00  5.6126938E+03
 7.5868187E+00  5.7424839E+03
 7.6120663E+00  5.8228857E+03
 7.6373134E+00  5.7599604E+03
 7.6625605E+00  5.5703794E+03
 7.6878080E+00  5.4037891E+03
 7.7130551E+00  5.4068271E+03
 7.7383027E+00  5.6638364E+03
 7.7635498E+00  6.0721904E+03
 7.7887974E+00  6.3957852E+03
 7.8140445E+00  6.4928726E+03
 7.8392920E+00  6.3629370E+03
 7.8645391E+00  6.0663955E+03
 7.8897867E+00  5.6914624E+03
 7.9150338E+00  5.3329731E+03
 7.9402814E+00  5.1738398E+03
 7.9655285E+00  5.4526128E+03
 7.9907756E+00  6.3992378E+03
 8.0160227E+00  7.9451455E+03
 8.0412703E+00  9.5085664E+03
 8.0665178E+00  1.0549429E+04
 8.0917654E+00  1.0847610E+04
 8.1170120E+00  1.0221534E+04
 8.1422596E+00  9.1697949E+03
 8.1675072E+00  8.2425283E+03
 8.1927547E+00  7.7095093E+03
 8.2180014E+00  7.4649844E+03
 8.2432489E+00  7.2074497E+03
 8.2684965E+00  6.8569795E+03
 8.2937431E+00  6.5419595E+03
 8.3189907E+00  6.4067686E+03
 8.3442383E+00  6.5556411E+03
 8.3694859E+00  6.9778936E+03
 8.3947325E+00  7.5944878E+03
 8.4199800E+00  8.1684893E+03
 8.4452276E+00  8.3721348E+03
 8.4704752E+00  8.1038779E+03
 8.4957218E+00  7.5166514E+03
 8.5209694E+00  6.8052974E+03
 8.5462170E+00  6.2705137E+03
 8.5714645E+00  6.0830332E+03
 8.5967112E+00  6.2537993E+03
 8.6219587E+00  6.6779067E+03
 8.6472063E+00  7.0915151E+03
 8.6724529E+00  7.2678354E+03
 8.6977005E+00  7.1504854E+03
 8.7229481E+00  6.8351211E+03
 8.7481956E+00  6.4674971E+03
 8.7734423E+00  6.2262729E+03
 8.7986898E+00  6.0894453E+03
 8.8239374E+00  5.8781533E+03
 8.8491850E+00  5.5434609E+03
 8.8744316E+00  5.1620269E+03
 8.8996792E+00  4.9069824E+03
 8.9249268E+00  4.9277388E+03
 8.9501734E+00  5.1653667E+03
 8.9754210E+00  5.4428506E+03
 9.0006685E+00  5.6242080E+03
 9.0259161E+00  5.6321343E+03
 9.0511627E+00  5.4842451E+03
 9.0764103E+00  5.2589907E+03
 9.1016579E+00  5.0360737E+03
 9.1269054E+00  4.9038706E+03
 9.1521521E+00  4.8606851E+03
 9.1773996E+00  4.8905576E+03
 9.2026472E+00  4.9991958E+03
 9.2278948E+00  5.1296860E+03
 9.2531414E+00  5.2456055E+03
 9.2783890E+00  5.2923999E+03
 9.3036366E+00  5.1917856E+03
 9.3288832E+00  4.9662031E+03
 9.3541307E+00  4.7497007E+03
 9.3793783E+00  4.6461143E+03
 9.4046259E+00  4.7098125E+03
 9.4298725E+00  4.9217759E+03
 9.4551201E+00  5.2264277E+03
 9.4803677E+00  5.5858560E+03
 9.5056152E+00  5.9558574E+03
 9.5308619E+00  6.2207817E+03
 9.5561094E+00  6.2983828E+03
 9.5813570E+00  6.2249585E+03
 9.6066036E+00  6.0306274E+03
 9.6318512E+00  5.7311392E+03
 9.6570988E+00  5.3923506E+03
 9.6823463E+00  5.1358784E+03
 9.7075930E+00  5.0722065E+03
 9.7328405E+00  5.1976694E+03
 9.7580881E+00  5.3524160E+03
 9.7833357E+00  5.4499502E+03
 9.8085823E+00  5.4907314E+03
 9.8338299E+00  5.4659336E+03
 9.8590775E+00  5.3652153E+03
 9.8843250E+00  5.2067505E+03
 9.9095716E+00  5.0624365E+03
 9.9348192E+00  4.9991377E+03
 9.9600668E+00  5.0055542E+03
 9.9853134E+00  5.0377212E+03
 1.0010561E+01  5.0771934E+03
 1.0035809E+01  5.1485488E+03
 1.0061056E+01  5.2446099E+03
 1.0086303E+01  5.3242100E+03
 1.0111550E+01  5.3720493E+03
 1.0136798E+01  5.3743232E+03
 1.0162045E+01  5.2998848E+03
 1.0187292E+01  5.1935708E+03
 1.0212540E+01  5.1252983E+03
 1.0237787E+01  5.1636450E+03
 1.0263034E+01  5.2940410E+03
 1.0288281E+01  5.4314087E+03
 1.0313529E+01  5.5263848E+03
 1.0338777E+01  5.5829297E+03
 1.0364023E+01  5.5724106E+03
 1.0389271E+01  5.4481523E+03
 1.0414518E+01  5.1945854E+03
 1.0439766E+01  4.8591211E+03
 1.0465013E+01  4.5430078E+03
 1.0490260E+01  4.3326616E+03
 1.0515508E+01  4.2109604E+03
 1.0540755E+01  4.1674077E+03
 1.0566002E+01  4.1363667E+03
 1.0591249E+01  4.1049238E+03
 1.0616497E+01  4.0985684E+03
 1.0641744E+01  4.0867097E+03
 1.0666991E+01  4.0619187E+03
 1.0692239E+01  4.0479902E+03
 1.0717486E+01  4.0847942E+03
 1.0742733E+01  4.1784375E+03
 1.0767981E+01  4.2952344E+03
 1.0793228E+01  4.4274526E+03
 1.0818476E+01  4.5809707E+03
 1.0843722E+01  4.7335820E+03
 1.0868970E+01  4.8574712E+03
 1.0894217E+01  4.9299331E+03
 1.0919464E+01  4.9435586E+03
 1.0944712E+01  4.9367563E+03
 1.0969959E+01  4.9544741E+03
 1.0995207E+01  5.0118936E+03
 1.1020453E+01  5.0731826E+03
 1.1045701E+01  5.1207295E+03
 1.1070949E+01  5.1273530E+03
 1.1096196E+01  5.0788066E+03
 1.1121443E+01  4.9744766E+03
 1.1146690E+01  4.8196611E+03
 1.1171938E+01  4.6396592E+03
 1.1197186E+01  4.4815347E+03
 1.1222432E+01  4.3858184E+03
 1.1247680E+01  4.3611455E+03
 1.1272927E+01  4.3734585E+03
 1.1298174E+01  4.4036475E+03
 1.1323421E+01  4.4541802E+03
 1.1348669E+01  4.5122314E+03
 1.1373917E+01  4.5643921E+03
 1.1399163E+01  4.5968389E+03
 1.1424411E+01  4.6480508E+03
 1.1449658E+01  4.7562905E+03
 1.1474906E+01  4.9048540E+03
 1.1500153E+01  5.0257969E+03
 1.1525400E+01  5.0839795E+03
 1.1550648E+01  5.0826392E+03
 1.1575894E+01  5.0359077E+03
 1.1601142E+01  4.9453032E+03
 1.1626390E+01  4.8329116E+03
 1.1651637E+01  4.7151030E+03
 1.1676884E+01  4.6061118E+03
 1.1702131E+01  4.5454521E+03
 1.1727379E+01  4.5441846E+03
 1.1752626E+01  4.5621465E+03
 1.1777873E+01  4.5726230E+03
 1.1803121E+01  4.5743120E+03
 1.1828368E+01  4.5343926E+03
 1.1853616E+01  4.4434365E+03
 1.1878862E+01  4.3373501E+03
 1.1904110E+01  4.2339131E+03
 1.1929358E+01  4.1082510E+03
 1.1954604E+01  3.9621226E+03
 1.1979852E+01  3.8100034E+03
 1.2005099E+01  3.6747585E+03
 1.2030347E+01  3.5733091E+03
 1.2055593E+01  3.5278848E+03
 1.2080841E+01  3.5361421E+03
 1.2106089E+01  3.5638042E+03
 1.2131336E+01  3.5919377E+03
 1.2156583E+01  3.6166672E+03
 1.2181830E+01  3.6449248E+03
 1.2207078E+01  3.6820266E+03
 1.2232325E+01  3.7147007E+03
 1.2257572E+01  3.7231704E+03
 1.2282820E+01  3.7096931E+03
 1.2308067E+01  3.6965488E+03
 1.2333314E+01  3.7106917E+03
 1.2358562E+01  3.7513308E+03
 1.2383809E+01  3.7959775E+03
 1.2409057E+01  3.8250144E+03
 1.2434303E+01  3.8443750E+03
 1.2459551E+01  3.8728152E+03
 1.2484798E+01  3.9121943E+03
 1.2510045E+01  3.9484983E+03
 1.2535293E+01  3.9509600E+03
 1.2560540E+01  3.9146760E+03
 1.2585788E+01  3.8783899E+03
 1.2611034E+01  3.8594312E+03
 1.2636282E+01  3.8718042E+03
 1.2661530E+01  3.9072197E+03
 1.2686777E+01  3.9336907E+03
 1.2712024E+01  3.9452830E+03
 1.2737271E+01  3.9514224E+03
 1.2762519E+01  3.9585437E+03
 1.2787766E+01  3.9598411E+03
 1.2813013E+01  3.9469836E+03
 1.2838261E+01  3.9291399E+03
 1.2863508E+01  3.9171631E+03
 1.2888755E+01  3.9331541E+03
 1.2914002E+01  3.9750359E+03
 1.2939250E+01  4.0057185E+03
 1.2964498E+01  4.0270820E+03
 1.2989744E+01  4.0401187E+03
 1.3014992E+01  4.0422480E+03
 1.3040239E+01  4.0318022E+03
 1.3065487E+01  4.0137332E+03
 1.3090734E+01  3.9966743E+03
 1.3115981E+01  3.9697825E+03
 1.3141229E+01  3.9184856E+03
 1.3166475E+01  3.8446956E+03
 1.3191723E+01  3.7750515E+03
 1.3216970E+01  3.7196648E+03
 1.3242218E+01  3.6891250E+03
 1.3267465E+01  3.6827283E+03
 1.3292712E+01  3.6938218E+03
 1.3317960E+01  3.7052476E+03
 1.3343207E+01  3.7041536E+03
 1.3368454E+01  3.7005315E+03
 1.3393702E+01  3.7049534E+03
 1.3418949E+01  3.7205149E+03
 1.3444197E+01  3.7389282E+03
 1.3469443E+01  3.7630742E+03
 1.3494691E+01  3.7914192E+03
 1.3519938E+01  3.8156592E+03
 1.3545185E+01  3.8311604E+03
 1.3570433E+01  3.8318054E+03
 1.3595680E+01  3.8198535E+03
 1.3620928E+01  3.7985012E+03
 1.3646174E+01  3.7770208E+03
 1.3671422E+01  3.7593872E+03
 1.3696670E+01  3.7477898E+03
 1.3721917E+01  3.7347346E+03
 1.3747164E+01  3.7094824E+03
 1.3772411E+01  3.6842559E+03
 1.3797659E+01  3.6611135E+03
 1.3822906E+01  3.6458994E+03
 1.3848153E+01  3.6511279E+03
 1.3873401E+01  3.6693176E+03
 1.3898648E+01  3.6873435E+03
 1.3923895E+01  3.6875757E+03
 1.3949142E+01  3.6612708E+03
 1.3974390E+01  3.6237754E+03
 1.3999638E+01  3.5977988E+03
 1.4024884E+01  3.5983911E+03
 1.4050132E+01  3.6182368E+03
 1.4075379E+01  3.6359041E+03
 1.4100627E+01  3.6392688E+03
 1.4125874E+01  3.6322673E+03
 1.4151121E+01  3.6186047E+03
 1.4176369E+01  3.6055400E+03
 1.4201615E+01  3.5969153E+03
 1.4226863E+01  3.5934646E+03
 1.4252110E+01  3.5877788E+03
 1.4277358E+01  3.5736396E+03
 1.4302605E+01  3.5464604E+03
 1.4327852E+01  3.5147632E+03
 1.4353100E+01  3.4915925E+03
 1.4378347E+01  3.4651221E+03
 1.4403594E+01  3.4308669E+03
 1.4428842E+01  3.3924431E+03
 1.4454089E+01  3.3561619E+03
 1.4479336E+01  3.3281174E+03
 1.4504583E+01  3.3168401E+03
 1.4529831E+01  3.3151252E+03
 1.4555079E+01  3.3155740E+03
 1.4580325E+01  3.3188284E+03
 1.4605573E+01  3.3231536E+03
 1.4630820E+01  3.3221829E+03
 1.4656068E+01  3.3119297E+03
 1.4681314E+01  3.2989607E+03
 1.4706562E+01  3.2891719E+03
 1.4731810E+01  3.2894448E+03
 1.4757057E+01  3.2991360E+03
 1.4782304E+01  3.3195146E+03
 1.4807551E+01  3.3370186E+03
 1.4832799E+01  3.3400232E+03
 1.4858046E+01  3.3254072E+03
 1.4883293E+01  3.3000405E+03
 1.4908541E+01  3.2797400E+03
 1.4933788E+01  3.2738245E+03
 1.4959035E+01  3.2875254E+03
 1.4984282E+01  3.3147039E+03
 1.5009530E+01  3.3334954E+03
 1.5034778E+01  3.3295476E+03
 1.5060024E+01  3.3066016E+03
 1.5085272E+01  3.2858950E+03
 1.5110519E+01  3.2778745E+03
 1.5135766E+01  3.2797651E+03
 1.5161014E+01  3.2884619E+03
 1.5186261E+01  3.2919751E+03
 1.5211509E+01  3.2865269E+03
 1.5236755E+01  3.2646321E+03
 1.5262003E+01  3.2397813E+03
 1.5287251E+01  3.2257341E+03
 1.5312498E+01  3.2255850E+03
 1.5337745E+01  3.2310398E+03
 1.5362992E+01  3.2268577E+03
 1.5388240E+01  3.2050259E+03
 1.5413487E+01  3.1769490E+03
 1.5438734E+01  3.1567065E+03
 1.5463982E+01  3.1486526E+03
 1.5489229E+01  3.1496904E+03
 1.5514476E+01  3.1556438E+03
 1.5539723E+01  3.1571260E+03
 1.5564971E+01  3.1566736E+03
 1.5590219E+01  3.1568870E+03
 1.5615465E+01  3.1598564E+03
 1.5640713E+01  3.1662190E+03
 1.5665960E+01  3.1692637E+03
 1.5691208E+01  3.1664392E+03
 1.5716455E+01  3.1557041E+03
 1.5741702E+01  3.1446233E+03
 1.5766950E+01  3.1406946E+03
 1.5792196E+01  3.1427271E+03
 1.5817444E+01  3.1442227E+03
 1.5842691E+01  3.1382461E+03
 1.5867939E+01  3.1254561E+03
 1.5893186E+01  3.1128665E+03
 1.5918433E+01  3.1091350E+03
 1.5943681E+01  3.1189465E+03
 1.5968928E+01  3.1322668E+03
 1.5994175E+01  3.1284033E+03
 1.6019423E+01  3.1302505E+03
 1.6044670E+01  3.1539771E+03
 1.6069918E+01  3.1601072E+03
 1.6095165E+01  3.1647803E+03
 1.6120411E+01  3.1693442E+03
 1.6145658E+01  3.1749138E+03
 1.6170906E+01  3.1838450E+03
 1.6196154E+01  3.1903247E+03
 1.6221401E+01  3.1881724E+03
 1.6246649E+01  3.1758936E+03
 1.6271896E+01  3.1566426E+03
 1.6297144E+01  3.1377449E+03
 1.6322390E+01  3.1224763E+03
 1.6347637E+01  3.1084541E+03
 1.6372885E+01  3.0966582E+03
 1.6398132E+01  3.0913252E+03
 1.6423380E+01  3.0888530E+03
 1.6448627E+01  3.0931782E+03
 1.6473875E+01  3.0910317E+03
 1.6499121E+01  3.0747830E+03
 1.6524368E+01  3.0532148E+03
 1.6549616E+01  3.0353257E+03
 1.6574863E+01  3.0234553E+03
 1.6600111E+01  3.0213108E+03
 1.6625359E+01  3.0286494E+03
 1.6650606E+01  3.0390251E+03
 1.6675854E+01  3.0446458E+03
 1.6701099E+01  3.0419487E+03
 1.6726347E+01  3.0332163E+03
 1.6751595E+01  3.0243911E+03
 1.6776842E+01  3.0133875E+03
 1.6802090E+01  3.0105000E+03
 1.6827337E+01  3.0136636E+03
 1.6852585E+01  3.0196091E+03
 1.6877831E+01  3.0257065E+03
 1.6903078E+01  3.0245928E+03
 1.6928326E+01  3.0166990E+03
 1.6953573E+01  3.0028596E+03
 1.6978821E+01  2.9884426E+03
 1.7004068E+01  2.9787788E+03
 1.7029316E+01  2.9732813E+03
 1.7054562E+01  2.9626455E+03
 1.7079809E+01  2.9517000E+03
 1.7105057E+01  2.9367964E+03
 1.7130304E+01  2.9175896E+03
 1.7155552E+01  2.8968826E+03
 1.7180799E+01  2.8771721E+03
 1.7206047E+01  2.8640181E+03
 1.7231295E+01  2.8472839E+03
 1.7256540E+01  2.8320271E+03
 1.7281788E+01  2.8182104E+03
 1.7307035E+01  2.8019751E+03
 1.7332283E+01  2.7879199E+03
 1.7357531E+01  2.7822944E+03
 1.7382778E+01  2.7763962E+03
 1.7408026E+01  2.7700820E+03
 1.7433271E+01  2.7673486E+03
 1.7458519E+01  2.7691863E+03
 1.7483767E+01  2.7696030E+03
 1.7509014E+01  2.7678752E+03
 1.7534262E+01  2.7622866E+03
 1.7559509E+01  2.7545603E+03
 1.7584757E+01  2.7485903E+03
 1.7610004E+01  2.7481689E+03
 1.7635250E+01  2.7561729E+03
 1.7660498E+01  2.7666038E+03
 1.7685745E+01  2.7696792E+03
 1.7710993E+01  2.7670962E+03
 1.7736240E+01  2.7656982E+03
 1.7761488E+01  2.7660354E+03
 1.7786736E+01  2.7675459E+03
 1.7811981E+01  2.7692012E+03
 1.7837229E+01  2.7710200E+03
 1.7862476E+01  2.7690105E+03
 1.7887724E+01  2.7663762E+03
 1.7912971E+01  2.7702585E+03
 1.7938219E+01  2.7769768E+03
 1.7963467E+01  2.7831492E+03
 1.7988714E+01  2.7852344E+03
 1.8013960E+01  2.7838474E+03
 1.8039207E+01  2.7790540E+03
 1.8064455E+01  2.7727573E+03
 1.8089703E+01  2.7719500E+03
 1.8114950E+01  2.7679431E+03
 1.8140198E+01  2.7606047E+03
 1.8165445E+01  2.7549319E+03
 1.8190691E+01  2.7505571E+03
 1.8215939E+01  2.7476536E+03
 1.8241186E+01  2.7450801E+03
 1.8266434E+01  2.7433628E+03
 1.8291681E+01  2.7452290E+03
 1.8316929E+01  2.7446128E+03
 1.8342176E+01  2.7419939E+03
 1.8367422E+01  2.7420186E+03
 1.8392670E+01  2.7414924E+03
 1.8417917E+01  2.7396899E+03
 1.8443165E+01  2.7348203E+03
 1.8468412E+01  2.7287327E+03
 1.8493660E+01  2.7252510E+03
 1.8518908E+01  2.7239146E+03
 1.8544155E+01  2.7219048E+03
 1.8569401E+01  2.7210825E+03
 1.8594648E+01  2.7219441E+03
 1.8619896E+01  2.7218413E+03
 1.8645144E+01  2.7246768E+03
 1.8670391E+01  2.7265840E+03
 1.8695639E+01  2.7208958E+03
 1.8720886E+01  2.7099629E+03
 1.8746132E+01  2.6966594E+03
 1.8771379E+01  2.6851016E+03
 1.8796627E+01  2.6772969E+03
 1.8821875E+01  2.6731960E+03
 1.8847122E+01  2.6695872E+03
 1.8872370E+01  2.6641340E+03
 1.8897617E+01  2.6606245E+03
 1.8922865E+01  2.6573137E+03
 1.8948111E+01  2.6551328E+03
 1.8973358E+01  2.6477834E+03
 1.8998606E+01  2.6381440E+03
 1.9023853E+01  2.6301025E+03
 1.9049101E+01  2.6236563E+03
 1.9074348E+01  2.6209653E+03
 1.9099596E+01  2.6172480E+03
 1.9124842E+01  2.6155286E+03
 1.9150089E+01  2.6130798E+03
 1.9175337E+01  2.6077717E+03
 1.9200584E+01  2.6020032E+03
 1.9225832E+01  2.5981487E+03
 1.9251080E+01  2.5948123E+03
 1.9276327E+01  2.5910833E+03
 1.9301575E+01  2.5866499E+03
 1.9326820E+01  2.5844224E+03
 1.9352068E+01  2.5819661E+03
 1.9377316E+01  2.5825369E+03
 1.9402563E+01  2.5811084E+03
 1.9427811E+01  2.5816936E+03
 1.9453058E+01  2.5826853E+03
 1.9478306E+01  2.5817844E+03
 1.9503551E+01  2.5796143E+03
 1.9528799E+01  2.5737317E+03
 1.9554047E+01  2.5673330E+03
 1.9579294E+01  2.5645327E+03
 1.9604542E+01  2.5608599E+03
 1.9629789E+01  2.5602197E+03
 1.9655037E+01  2.5571938E+03
 1.9680283E+01  2.5511431E+03
 1.9705530E+01  2.5461990E+03
 1.9730778E+01  2.5399089E+03
 1.9756025E+01  2.5317234E+03
 1.9781273E+01  2.5253501E+03
 1.9806520E+01  2.5174094E+03
 1.9831768E+01  2.5078721E+03
 1.9857016E+01  2.4955239E+03
 1.9882261E+01  2.4855400E+03
 1.9907509E+01  2.4774199E+03
 1.9932756E+01  2.4699443E+03
 1.9958004E+01  2.4626841E+03
 1.9983252E+01  2.4560620E+03
 2.0008499E+01  2.4483367E+03
 2.0033747E+01  2.4403831E+03
 2.0058992E+01  2.4329995E+03
 2.0084240E+01  2.4238840E+03
 2.0109488E+01  2.4139204E+03
 2.0134735E+01  2.4078428E+03
 2.0159983E+01  2.4045603E+03
 2.0185230E+01  2.4067202E+03
 2.0210478E+01  2.4085044E+03
 2.0235725E+01  2.4092327E+03
 2.0260971E+01  2.4096631E+03
 2.0286219E+01  2.4096377E+03
 2.0311466E+01  2.4090942E+03
 2.0336714E+01  2.4073523E+03
 2.0361961E+01  2.4054924E+03
 2.0387209E+01  2.4030234E+03
 2.0412457E+01  2.4018987E+03
 2.0437702E+01  2.4012532E+03
 2.0462950E+01  2.4006553E+03
 2.0488197E+01  2.3995203E+03
 2.0513445E+01  2.4015063E+03
 2.0538692E+01  2.4042017E+03
 2.0563940E+01  2.4071245E+03
 2.0589188E+01  2.4068696E+03
 2.0614435E+01  2.4060894E+03
 2.0639681E+01  2.4044775E+03
 2.0664928E+01  2.4019133E+03
 2.0690176E+01  2.3972029E+03
 2.0715424E+01  2.3925225E+03
 2.0740671E+01  2.3897170E+03
 2.0765919E+01  2.3898401E+03
 2.0791166E+01  2.3877476E+03
 2.0816412E+01  2.3838103E+03
 2.0841660E+01  2.3813557E+03
 2.0866907E+01  2.3808445E+03
 2.0892155E+01  2.3802073E+03
 2.0917402E+01  2.3781975E+03
 2.0942650E+01  2.3756777E+03
 2.0967897E+01  2.3728525E+03
 2.0993143E+01  2.3709946E+03
 2.1018391E+01  2.3725601E+03
 2.1043638E+01  2.3717712E+03
 2.1068886E+01  2.3704189E+03
 2.1094133E+01  2.3722671E+03
 2.1119381E+01  2.3706494E+03
 2.1144629E+01  2.3695300E+03
 2.1169876E+01  2.3673062E+03
 2.1195122E+01  2.3622156E+03
 2.1220369E+01  2.3575654E+03
 2.1245617E+01  2.3554966E+03
 2.1270864E+01  2.3520439E+03
 2.1296112E+01  2.3466289E+03
 2.1321360E+01  2.3430405E+03
 2.1346607E+01  2.3391228E+03
 2.1371853E+01  2.3352366E+03
 2.1397100E+01  2.3316670E+03
 2.1422348E+01  2.3281892E+03
 2.1447596E+01  2.3239036E+03
 2.1472843E+01  2.3211943E+03
 2.1498091E+01  2.3175271E+03
 2.1523338E+01  2.3143813E+03
 2.1548586E+01  2.3096931E+03
 2.1573832E+01  2.3048689E+03
 2.1599079E+01  2.3022478E+03
 2.1624327E+01  2.2975723E+03
 2.1649574E+01  2.2901118E+03
 2.1674822E+01  2.2848047E+03
 2.1700069E+01  2.2789041E+03
 2.1725317E+01  2.2717244E+03
 2.1750563E+01  2.2669988E+03
 2.1775810E+01  2.2626558E+03
 2.1801058E+01  2.2589812E+03
 2.1826305E+01  2.2582727E+03
 2.1851553E+01  2.2569214E+03
 2.1876801E+01  2.2564514E+03
 2.1902048E+01  2.2533481E+03
 2.1927294E+01  2.2454895E+03
 2.1952541E+01  2.2350154E+03
 2.1977789E+01  2.2210012E+03
 2.2003036E+01  2.2082249E+03
 2.2028284E+01  2.1988882E+03
 2.2053532E+01  2.1896348E+03
 2.2078779E+01  2.1809817E+03
 2.2104027E+01  2.1695974E+03
 2.2129272E+01  2.1587505E+03
 2.2154520E+01  2.1501357E+03
 2.2179768E+01  2.1405547E+03
 2.2205015E+01  2.1438145E+03
 2.2230263E+01  2.1543806E+03
 2.2255510E+01  2.1579194E+03
 2.2280758E+01  2.1587971E+03
 2.2306004E+01  2.1588970E+03
 2.2331251E+01  2.1593811E+03
 2.2356499E+01  2.1566042E+03
 2.2381746E+01  2.1555205E+03
 2.2406994E+01  2.1554509E+03
 2.2432241E+01  2.1523816E+03
 2.2457489E+01  2.1532673E+03
 2.2482737E+01  2.1529612E+03
 2.2507982E+01  2.1508813E+03
 2.2533230E+01  2.1509827E+03
 2.2558477E+01  2.1484089E+03
 2.2583725E+01  2.1456646E+03
 2.2608973E+01  2.1435679E+03
 2.2634220E+01  2.1418525E+03
 2.2659468E+01  2.1381216E+03
 2.2684713E+01  2.1343152E+03
 2.2709961E+01  2.1312432E+03
 2.2735209E+01  2.1273132E+03
 2.2760456E+01  2.1246382E+03
 2.2785704E+01  2.1220000E+03
 2.2810951E+01  2.1175623E+03
 2.2836199E+01  2.1169375E+03
 2.2861446E+01  2.1134097E+03
 2.2886692E+01  2.1123943E+03
 2.2911940E+01  2.1102603E+03
 2.2937187E+01  2.1070334E+03
 2.2962435E+01  2.1045466E+03
 2.2987682E+01  2.1018682E+03
 2.3012930E+01  2.0995103E+03
 2.3038177E+01  2.0997998E+03
 2.3063423E+01  2.1008655E+03
 2.3088671E+01  2.0990061E+03
 2.3113918E+01  2.0950420E+03
 2.3139166E+01  2.0915779E+03
 2.3164413E+01  2.0895261E+03
 2.3189661E+01  2.0894929E+03
 2.3214909E+01  2.0880645E+03
 2.3240154E+01  2.0860242E+03
 2.3265402E+01  2.0668408E+03
 2.3290649E+01  2.0713730E+03
 2.3315897E+01  2.0739688E+03
 2.3341145E+01  2.0752166E+03
 2.3366392E+01  2.0763381E+03
 2.3391640E+01  2.0736487E+03
 2.3416887E+01  2.0710010E+03
 2.3442133E+01  2.0694453E+03
 2.3467381E+01  2.0706472E+03
 2.3492628E+01  2.0690620E+03
 2.3517876E+01  2.0679609E+03
 2.3543123E+01  2.0669229E+03
 2.3568371E+01  2.0675923E+03
 2.3593618E+01  2.0648601E+03
 2.3618864E+01  2.0593601E+03
 2.3644112E+01  2.0572676E+03
 2.3669359E+01  2.0553679E+03
 2.3694607E+01  2.0527480E+03
 2.3719854E+01  2.0518381E+03
 2.3745102E+01  2.0510698E+03
 2.3770350E+01  2.0509434E+03
 2.3795597E+01  2.0489290E+03
 2.3820843E+01  2.0483518E+03
 2.3846090E+01  2.0469579E+03
 2.3871338E+01  2.0429551E+03
 2.3896585E+01  2.0390535E+03
 2.3921833E+01  2.0369868E+03
 2.3947081E+01  2.0346458E+03
 2.3972328E+01  2.0308160E+03
 2.3997574E+01  2.0288715E+03
 2.4022821E+01  2.0284083E+03
 2.4048069E+01  2.0258971E+03
 2.4073317E+01  2.0224937E+03
 2.4098564E+01  2.0230364E+03
 2.4123812E+01  2.0211101E+03
 2.4149059E+01  2.0162382E+03
 2.4174307E+01  2.0133423E+03
 2.4199553E+01  2.0125562E+03
 2.4224800E+01  2.0091605E+03
 2.4250048E+01  2.0050364E+03
 2.4275295E+01  2.0023716E+03
 2.4300543E+01  2.0008859E+03
 2.4325790E+01  1.9973353E+03
 2.4351038E+01  1.9951119E+03
 2.4376284E+01  1.9922086E+03
 2.4401531E+01  1.9901080E+03
 2.4426779E+01  1.9872557E+03
 2.4452026E+01  1.9844963E+03
 2.4477274E+01  1.9830404E+03
 2.4502522E+01  1.9785991E+03
 2.4527769E+01  1.9741586E+03
 2.4553015E+01  1.9720608E+03
 2.4578262E+01  1.9710454E+03
 2.4603510E+01  1.9671635E+03
 2.4628757E+01  1.9638573E+03
 2.4654005E+01  1.9616741E+03
 2.4679253E+01  1.9588165E+03
 2.4704500E+01  1.9544257E+03
 2.4729748E+01  1.9506842E+03
 2.4754993E+01  1.9487045E+03
 2.4780241E+01  1.9460989E+03
 2.4805489E+01  1.9422770E+03
 2.4830736E+01  1.9404989E+03
 2.4855984E+01  1.9386827E+03
 2.4881231E+01  1.9363082E+03
 2.4906479E+01  1.9329550E+03
 2.4931725E+01  1.9316703E+03
 2.4956972E+01  1.9299175E+03
 2.4982220E+01  1.9267629E+03
 2.5007467E+01  1.9252332E+03
 2.5032715E+01  1.9229561E+03
 2.5057962E+01  1.9184900E+03
 2.5083210E+01  1.9136832E+03
 2.5108458E+01  1.9116321E+03
 2.5133703E+01  1.9099801E+03
 2.5158951E+01  1.9069500E+03
 2.5184198E+01  1.9044501E+03
 2.5209446E+01  1.9031033E+03
 2.5234694E+01  1.9006937E+03
 2.5259941E+01  1.8977428E+03
 2.5285189E+01  1.8943453E+03
 2.5310434E+01  1.8927036E+03
 2.5335682E+01  1.8915936E+03
 2.5360929E+01  1.8882244E+03
 2.5386177E+01  1.8858260E+03
 2.5411425E+01  1.8834102E+03
 2.5436672E+01  1.8815088E+03
 2.5461920E+01  1.8781273E+03
 2.5487167E+01  1.8766490E+03
 2.5512413E+01  1.8748392E+03
 2.5537661E+01  1.8731538E+03
 2.5562908E+01  1.8705574E+03
 2.5588156E+01  1.8679792E+03
 2.5613403E+01  1.8647806E+03
 2.5638651E+01  1.8636835E+03
 2.5663898E+01  1.8620406E+03
 2.5689144E+01  1.8606049E+03
 2.5714392E+01  1.8588386E+03
 2.5739639E+01  1.8575090E+03
 2.5764887E+01  1.8552227E+03
 2.5790134E+01  1.8524287E+03
 2.5815382E+01  1.8484896E+03
 2.5840630E+01  1.8458862E+03
 2.5865875E+01  1.8462452E+03
 2.5891123E+01  1.8467489E+03
 2.5916370E+01  1.8445471E+03
 2.5941618E+01  1.8426514E+03
 2.5966866E+01  1.8405276E+03
 2.5992113E+01  1.8376099E+03
 2.6017361E+01  1.8379758E+03
 2.6042608E+01  1.8348326E+03
 2.6067854E+01  1.8336245E+03
 2.6093102E+01  1.8319448E+03
 2.6118349E+01  1.8305323E+03
 2.6143597E+01  1.8276335E+03
 2.6168844E+01  1.8245842E+03
 2.6194092E+01  1.8235835E+03
 2.6219339E+01  1.8233146E+03
 2.6244585E+01  1.8214401E+03
 2.6269833E+01  1.8193014E+03
 2.6295080E+01  1.8183765E+03
 2.6320328E+01  1.8175947E+03
 2.6345575E+01  1.8148767E+03
 2.6370823E+01  1.8104535E+03
 2.6396070E+01  1.8093698E+03
 2.6421318E+01  1.8088766E+03
 2.6446564E+01  1.8067485E+03
 2.6471811E+01  1.8020645E+03
 2.6497059E+01  1.8000024E+03
 2.6522306E+01  1.7979651E+03
 2.6547554E+01  1.7963813E+03
 2.6572802E+01  1.7951367E+03
 2.6598049E+01  1.7899463E+03
 2.6623295E+01  1.7884563E+03
 2.6648542E+01  1.7867639E+03
 2.6673790E+01  1.7838423E+03
 2.6699038E+01  1.7814446E+03
 2.6724285E+01  1.7791080E+03
 2.6749533E+01  1.7785204E+03
 2.6774780E+01  1.7763575E+03
 2.6800026E+01  1.7724518E+03
 2.6825274E+01  1.7704032E+03
 2.6850521E+01  1.7685281E+03
 2.6875769E+01  1.7672899E+03
 2.6901016E+01  1.7648434E+03
 2.6926264E+01  1.7622836E+03
 2.6951511E+01  1.7589668E+03
 2.6976759E+01  1.7581823E+03
 2.7002005E+01  1.7569276E+03
 2.7027252E+01  1.7540365E+03
 2.7052500E+01  1.7511357E+03
 2.7077747E+01  1.7481692E+03
 2.7102995E+01  1.7453184E+03
 2.7128242E+01  1.7437820E+03
 2.7153490E+01  1.7406672E+03
 2.7178736E+01  1.7371232E+03
 2.7203983E+01  1.7346106E+03
 2.7229231E+01  1.7337277E+03
 2.7254478E+01  1.7334154E+03
 2.7279726E+01  1.7313671E+03
 2.7304974E+01  1.7285664E+03
 2.7330221E+01  1.7247197E+03
 2.7355469E+01  1.7221400E+03
 2.7380714E+01  1.7185166E+03
 2.7405962E+01  1.7166042E+03
 2.7431210E+01  1.7167604E+03
 2.7456457E+01  1.7157017E+03
 2.7481705E+01  1.7139855E+03
 2.7506952E+01  1.7117971E+03
 2.7532200E+01  1.7105193E+03
 2.7557446E+01  1.7077576E+03
 2.7582693E+01  1.7052881E+03
 2.7607941E+01  1.7034685E+03
 2.7633188E+01  1.7017422E+03
 2.7658436E+01  1.7013324E+03
 2.7683683E+01  1.6988071E+03
 2.7708931E+01  1.6945245E+03
 2.7734179E+01  1.6924133E+03
 2.7759424E+01  1.6902780E+03
 2.7784672E+01  1.6873192E+03
 2.7809919E+01  1.6850515E+03
 2.7835167E+01  1.6822393E+03
 2.7860415E+01  1.6809053E+03
 2.7885662E+01  1.6776216E+03
 2.7910910E+01  1.6756573E+03
 2.7936155E+01  1.6741466E+03
 2.7961403E+01  1.6717192E+03
 2.7986650E+01  1.6689897E+03
 2.8011898E+01  1.6682322E+03
 2.8037146E+01  1.6663285E+03
 2.8062393E+01  1.6653993E+03
 2.8087641E+01  1.6619673E+03
 2.8112886E+01  1.6589453E+03
 2.8138134E+01  1.6537316E+03
 2.8163382E+01  1.6466895E+03
 2.8188629E+01  1.6391046E+03
 2.8213877E+01  1.6325078E+03
 2.8239124E+01  1.6236270E+03
 2.8264372E+01  1.6159855E+03
 2.8289619E+01  1.6066707E+03
 2.8314865E+01  1.5970204E+03
 2.8340113E+01  1.5882494E+03
 2.8365360E+01  1.5768286E+03
 2.8390608E+01  1.5678032E+03
 2.8415855E+01  1.5701667E+03
 2.8441103E+01  1.5825979E+03
 2.8466351E+01  1.5865232E+03
 2.8491596E+01  1.5880283E+03
 2.8516844E+01  1.5904138E+03
 2.8542091E+01  1.5909727E+03
 2.8567339E+01  1.5912394E+03
 2.8592587E+01  1.5914913E+03
 2.8617834E+01  1.5918859E+03
 2.8643082E+01  1.5915631E+03
 2.8668329E+01  1.5891707E+03
 2.8693575E+01  1.5870038E+03
 2.8718822E+01  1.5868175E+03
 2.8744070E+01  1.5876411E+03
 2.8769318E+01  1.5878264E+03
 2.8794565E+01  1.5862029E+03
 2.8819813E+01  1.5849226E+03
 2.8845060E+01  1.5841681E+03
 2.8870306E+01  1.5824019E+03
 2.8895554E+01  1.5800840E+03
 2.8920801E+01  1.5801494E+03
 2.8946049E+01  1.5814270E+03
 2.8971296E+01  1.5809362E+03
 2.8996544E+01  1.5775592E+03
 2.9021791E+01  1.5754160E+03
 2.9047039E+01  1.5751169E+03
 2.9072285E+01  1.5714270E+03
 2.9097532E+01  1.5697550E+03
 2.9122780E+01  1.5693247E+03
 2.9148027E+01  1.5662180E+03
 2.9173275E+01  1.5681589E+03
 2.9198523E+01  1.5659486E+03
 2.9223770E+01  1.5630426E+03
 2.9249016E+01  1.5612974E+03
 2.9274263E+01  1.5606774E+03
 2.9299511E+01  1.5582633E+03
 2.9324759E+01  1.5546771E+03
 2.9350006E+01  1.5549010E+03
 2.9375254E+01  1.5553317E+03
 2.9400501E+01  1.5521592E+03
 2.9425747E+01  1.5483759E+03
 2.9450994E+01  1.5441807E+03
 2.9476242E+01  1.5377393E+03
 2.9501490E+01  1.5305298E+03
 2.9526737E+01  1.5206724E+03
 2.9551985E+01  1.5075176E+03
 2.9577232E+01  1.4973925E+03
 2.9602480E+01  1.5068405E+03
 2.9627726E+01  1.5115934E+03
 2.9652973E+01  1.5135731E+03
 2.9678221E+01  1.5148545E+03
 2.9703468E+01  1.5133329E+03
 2.9728716E+01  1.5129911E+03
 2.9753963E+01  1.5119744E+03
 2.9779211E+01  1.5136136E+03
 2.9804457E+01  1.5115841E+03
 2.9829704E+01  1.5102695E+03
 2.9854952E+01  1.5051193E+03
 2.9880199E+01  1.5034161E+03
 2.9905447E+01  1.5020706E+03
 2.9930695E+01  1.5007864E+03
 2.9955942E+01  1.4997649E+03
 2.9981190E+01  1.4971360E+03
 3.0006435E+01  1.4979686E+03
 3.0031683E+01  1.4958905E+03
 3.0056931E+01  1.4959562E+03
 3.0082178E+01  1.4934799E+03
 3.0107426E+01  1.4889095E+03
 3.0132673E+01  1.4882634E+03
 3.0157921E+01  1.4865369E+03
 3.0183167E+01  1.4836377E+03
 3.0208414E+01  1.4827423E+03
 3.0233662E+01  1.4827551E+03
 3.0258909E+01  1.4794950E+03
 3.0284157E+01  1.4784655E+03
 3.0309404E+01  1.4783528E+03
 3.0334652E+01  1.4777218E+03
 3.0359900E+01  1.4743380E+03
 3.0385145E+01  1.4736764E+03
 3.0410393E+01  1.4734150E+03
 3.0435640E+01  1.4722943E+03
 3.0460888E+01  1.4747584E+03
 3.0486135E+01  1.4626326E+03
 3.0511383E+01  1.4616794E+03
 3.0536631E+01  1.4665308E+03
 3.0561876E+01  1.4612129E+03
 3.0587124E+01  1.4582474E+03
 3.0612371E+01  1.4564423E+03
 3.0637619E+01  1.4544685E+03
 3.0662867E+01  1.4552595E+03
 3.0688114E+01  1.4525353E+03
 3.0713362E+01  1.4497720E+03
 3.0738607E+01  1.4473973E+03
 3.0763855E+01  1.4493114E+03
 3.0789103E+01  1.4392174E+03
 3.0814350E+01  1.4433831E+03
 3.0839598E+01  1.4420427E+03
 3.0864845E+01  1.4413933E+03
 3.0890093E+01  1.4382323E+03
 3.0915340E+01  1.4365396E+03
 3.0940586E+01  1.4352339E+03
 3.0965834E+01  1.4335936E+03
 3.0991081E+01  1.4323795E+03
 3.1016329E+01  1.4304938E+03
 3.1041576E+01  1.4295383E+03
 3.1066824E+01  1.4294263E+03
 3.1092072E+01  1.4292150E+03
 3.1117317E+01  1.4250306E+03
 3.1142565E+01  1.4229365E+03
 3.1167812E+01  1.4219580E+03
 3.1193060E+01  1.4219951E+03
 3.1218307E+01  1.4170171E+03
 3.1243555E+01  1.4152584E+03
 3.1268803E+01  1.4154202E+03
 3.1294050E+01  1.4141351E+03
 3.1319296E+01  1.4106379E+03
 3.1344543E+01  1.4105762E+03
 3.1369791E+01  1.4076606E+03
 3.1395039E+01  1.4076179E+03
 3.1420286E+01  1.4072815E+03
 3.1445534E+01  1.4029735E+03
 3.1470781E+01  1.4025228E+03
 3.1496027E+01  1.4008257E+03
 3.1521275E+01  1.3990414E+03
 3.1546522E+01  1.3981774E+03
 3.1571770E+01  1.3947773E+03
 3.1597017E+01  1.3926632E+03
 3.1622265E+01  1.3927286E+03
 3.1647512E+01  1.3927031E+03
 3.1672758E+01  1.3900267E+03
 3.1698006E+01  1.3892064E+03
 3.1723253E+01  1.3886223E+03
 3.1748501E+01  1.3874401E+03
 3.1773748E+01  1.3843021E+03
 3.1798996E+01  1.3833508E+03
 3.1824244E+01  1.3821238E+03
 3.1849491E+01  1.3782166E+03
 3.1874737E+01  1.3756068E+03
 3.1899984E+01  1.3714690E+03
 3.1925232E+01  1.3505854E+03
 3.1950480E+01  1.3638164E+03
 3.1975727E+01  1.3658702E+03
 3.2000973E+01  1.3659904E+03
 3.2026222E+01  1.3658398E+03
 3.2051468E+01  1.3633203E+03
 3.2076717E+01  1.3604456E+03
 3.2101963E+01  1.3616060E+03
 3.2127213E+01  1.3610389E+03
 3.2152458E+01  1.3581100E+03
 3.2177704E+01  1.3568027E+03
 3.2202953E+01  1.3534590E+03
 3.2228199E+01  1.3518597E+03
 3.2253448E+01  1.3518688E+03
 3.2278694E+01  1.3509386E+03
 3.2303944E+01  1.3490712E+03
 3.2329189E+01  1.3467042E+03
 3.2354435E+01  1.3445322E+03
 3.2379684E+01  1.3434015E+03
 3.2404930E+01  1.3397411E+03
 3.2430180E+01  1.3415826E+03
 3.2455425E+01  1.3416084E+03
 3.2480675E+01  1.3383225E+03
 3.2505920E+01  1.3357299E+03
 3.2531166E+01  1.3330922E+03
 3.2556416E+01  1.3330607E+03
 3.2581661E+01  1.3335079E+03
 3.2606911E+01  1.3326750E+03
 3.2632156E+01  1.3318236E+03
 3.2657406E+01  1.3301360E+03
 3.2682652E+01  1.3277898E+03
 3.2707897E+01  1.3251707E+03
 3.2733147E+01  1.3247899E+03
 3.2758392E+01  1.3260508E+03
 3.2783642E+01  1.3228770E+03
 3.2808887E+01  1.3242712E+03
 3.2834137E+01  1.3232743E+03
 3.2859383E+01  1.3185631E+03
 3.2884632E+01  1.3157321E+03
 3.2909878E+01  1.3172911E+03
 3.2935123E+01  1.3171556E+03
 3.2960373E+01  1.3185096E+03
 3.2985619E+01  1.3155457E+03
 3.3010868E+01  1.3121053E+03
 3.3036114E+01  1.3108704E+03
 3.3061363E+01  1.3106350E+03
 3.3086609E+01  1.3100087E+03
 3.3111855E+01  1.3095770E+03
 3.3137104E+01  1.3100740E+03
 3.3162350E+01  1.3095999E+03
 3.3187599E+01  1.3071561E+03
 3.3212845E+01  1.3037831E+03
 3.3238094E+01  1.3038126E+03
 3.3263340E+01  1.3022266E+03
 3.3288586E+01  1.3011825E+03
 3.3313835E+01  1.2989935E+03
 3.3339081E+01  1.2980905E+03
 3.3364330E+01  1.2990732E+03
 3.3389576E+01  1.2969022E+03
 3.3414825E+01  1.2944063E+03
 3.3440071E+01  1.2940602E+03
 3.3465317E+01  1.2930057E+03
 3.3490566E+01  1.2893251E+03
 3.3515812E+01  1.2899399E+03
 3.3541061E+01  1.2878629E+03
 3.3566307E+01  1.2874993E+03
 3.3591557E+01  1.2859700E+03
 3.3616802E+01  1.2842592E+03
 3.3642048E+01  1.2838453E+03
 3.3667297E+01  1.2822200E+03
 3.3692543E+01  1.2789409E+03
 3.3717793E+01  1.2774700E+03
 3.3743038E+01  1.2759885E+03
 3.3768288E+01  1.2758257E+03
 3.3793533E+01  1.2767062E+03
 3.3818783E+01  1.2762180E+03
 3.3844028E+01  1.2766168E+03
 3.3869274E+01  1.2728191E+03
 3.3894524E+01  1.2728879E+03
 3.3919769E+01  1.2735264E+03
 3.3945019E+01  1.2721879E+03
 3.3970264E+01  1.2710698E+03
 3.3995514E+01  1.2728004E+03
 3.4020760E+01  1.2753164E+03
 3.4046005E+01  1.2653229E+03
 3.4071255E+01  1.2638485E+03
 3.4096500E+01  1.2686461E+03
 3.4121750E+01  1.2693071E+03
 3.4146996E+01  1.2700057E+03
 3.4172245E+01  1.2669899E+03
 3.4197491E+01  1.2650503E+03
 3.4222736E+01  1.2635626E+03
 3.4247986E+01  1.2629283E+03
 3.4273232E+01  1.2643931E+03
 3.4298481E+01  1.2629569E+03
 3.4323727E+01  1.2603364E+03
 3.4348976E+01  1.2572909E+03
 3.4374222E+01  1.2575287E+03
 3.4399467E+01  1.2565938E+03
 3.4424717E+01  1.2539276E+03
 3.4449963E+01  1.2509313E+03
 3.4475212E+01  1.2499866E+03
 3.4500458E+01  1.2483635E+03
 3.4525707E+01  1.2477510E+03
 3.4550953E+01  1.2467584E+03
 3.4576202E+01  1.2440726E+03
 3.4601448E+01  1.2402917E+03
 3.4626694E+01  1.2378202E+03
 3.4651943E+01  1.2304365E+03
 3.4677189E+01  1.2127301E+03
 3.4702438E+01  1.1844347E+03
 3.4727684E+01  1.1787916E+03
 3.4752934E+01  1.1690251E+03
 3.4778179E+01  1.1628351E+03
 3.4803425E+01  1.1733665E+03
 3.4828674E+01  1.1791617E+03
 3.4853920E+01  1.1817223E+03
 3.4879169E+01  1.1823931E+03
 3.4904415E+01  1.1822589E+03
 3.4929665E+01  1.1802659E+03
 3.4954910E+01  1.1854777E+03
 3.4980156E+01  1.1848125E+03
 3.5005405E+01  1.1849976E+03
 3.5030651E+01  1.1843451E+03
 3.5055901E+01  1.1813575E+03
 3.5081146E+01  1.1831306E+03
 3.5106396E+01  1.1847457E+03
 3.5131641E+01  1.1835680E+03
 3.5156887E+01  1.1833572E+03
 3.5182137E+01  1.1841388E+03
 3.5207382E+01  1.1841676E+03
 3.5232632E+01  1.1820044E+03
 3.5257877E+01  1.1810111E+03
 3.5283127E+01  1.1798600E+03
 3.5308372E+01  1.1799390E+03
 3.5333618E+01  1.1792687E+03
 3.5358868E+01  1.1761410E+03
 3.5384113E+01  1.1725698E+03
 3.5409363E+01  1.1709968E+03
 3.5434608E+01  1.1708951E+03
 3.5459858E+01  1.1691849E+03
 3.5485104E+01  1.1704313E+03
 3.5510353E+01  1.1676530E+03
 3.5535599E+01  1.1688108E+03
 3.5560844E+01  1.1652537E+03
 3.5586094E+01  1.1617272E+03
 3.5611340E+01  1.1598462E+03
 3.5636589E+01  1.1576609E+03
 3.5661835E+01  1.1579163E+03
 3.5687084E+01  1.1557269E+03
 3.5712330E+01  1.1549150E+03
 3.5737576E+01  1.1562522E+03
 3.5762825E+01  1.1533776E+03
 3.5788071E+01  1.1511243E+03
 3.5813320E+01  1.1496405E+03
 3.5838566E+01  1.1497122E+03
 3.5863815E+01  1.1462170E+03
 3.5889061E+01  1.1450497E+03
 3.5914307E+01  1.1439204E+03
 3.5939556E+01  1.1443002E+03
 3.5964802E+01  1.1399786E+03
 3.5990051E+01  1.1390609E+03
 3.6015297E+01  1.1383463E+03
 3.6040546E+01  1.1346576E+03
 3.6065792E+01  1.1334963E+03
 3.6091038E+01  1.1300524E+03
 3.6116287E+01  1.1310297E+03
 3.6141533E+01  1.1303768E+03
 3.6166782E+01  1.1293652E+03
 3.6192028E+01  1.1299414E+03
 3.6217278E+01  1.1277933E+03
 3.6242523E+01  1.1259291E+03
 3.6267769E+01  1.1230144E+03
 3.6293018E+01  1.1220907E+03
 3.6318264E+01  1.1171439E+03
 3.6343513E+01  1.1178701E+03
 3.6368759E+01  1.1188267E+03
 3.6394009E+01  1.1154937E+03
 3.6419254E+01  1.1134791E+03
 3.6444504E+01  1.1103933E+03
 3.6469749E+01  1.1076506E+03
 3.6494995E+01  1.1071293E+03
 3.6520245E+01  1.1077458E+03
 3.6545490E+01  1.1046436E+03
 3.6570740E+01  1.1038236E+03
 3.6595985E+01  1.1024315E+03
 3.6621235E+01  1.1005328E+03
 3.6646481E+01  1.1006912E+03
 3.6671726E+01  1.0950066E+03
 3.6696976E+01  1.0917057E+03
 3.6722221E+01  1.0972130E+03
 3.6747471E+01  1.0957139E+03
 3.6772717E+01  1.0951385E+03
 3.6797966E+01  1.0911100E+03
 3.6823212E+01  1.0902882E+03
 3.6848457E+01  1.0879279E+03
 3.6873707E+01  1.0854147E+03
 3.6898952E+01  1.0826140E+03
 3.6924202E+01  1.0806448E+03
 3.6949448E+01  1.0811853E+03
 3.6974697E+01  1.0791445E+03
 3.6999943E+01  1.0794088E+03
 3.7025188E+01  1.0813528E+03
 3.7050438E+01  1.0745553E+03
 3.7075684E+01  1.0743663E+03
 3.7100933E+01  1.0731653E+03
 3.7126179E+01  1.0709834E+03
 3.7151428E+01  1.0718116E+03
 3.7176674E+01  1.0683392E+03
 3.7201920E+01  1.0678810E+03
 3.7227169E+01  1.0668608E+03
 3.7252415E+01  1.0671650E+03
 3.7277664E+01  1.0675641E+03
 3.7302910E+01  1.0645300E+03
 3.7328159E+01  1.0637202E+03
 3.7353405E+01  1.0606755E+03
 3.7378654E+01  1.0583352E+03
 3.7403900E+01  1.0550743E+03
 3.7429146E+01  1.0539556E+03
 3.7454395E+01  1.0556840E+03
 3.7479641E+01  1.0509758E+03
 3.7504890E+01  1.0493689E+03
 3.7530136E+01  1.0494961E+03
 3.7555386E+01  1.0493116E+03
 3.7580631E+01  1.0458546E+03
 3.7605877E+01  1.0426366E+03
 3.7631126E+01  1.0437283E+03
 3.7656372E+01  1.0423665E+03
 3.7681622E+01  1.0404421E+03
 3.7706867E+01  1.0392756E+03
 3.7732117E+01  1.0371885E+03
 3.7757362E+01  1.0369169E+03
 3.7782608E+01  1.0320084E+03
 3.7807858E+01  1.0307570E+03
 3.7833103E+01  1.0312694E+03
 3.7858353E+01  1.0299918E+03
 3.7883598E+01  1.0256207E+03
 3.7908848E+01  1.0254202E+03
 3.7934093E+01  1.0263015E+03
 3.7959339E+01  1.0248531E+03
 3.7984589E+01  1.0220416E+03
 3.8009834E+01  1.0219050E+03
 3.8035084E+01  1.0186821E+03
 3.8060329E+01  1.0171879E+03
 3.8085579E+01  1.0136115E+03
 3.8110825E+01  1.0142600E+03
 3.8136074E+01  1.0112724E+03
 3.8161320E+01  1.0136576E+03
 3.8186565E+01  1.0115910E+03
 3.8211815E+01  1.0079720E+03
 3.8237061E+01  1.0060356E+03
 3.8262310E+01  1.0034319E+03
 3.8287556E+01  1.0040611E+03
 3.8312805E+01  1.0025712E+03
 3.8338051E+01  9.9963361E+02
 3.8363297E+01  9.9920386E+02
 3.8388546E+01  9.9619849E+02
 3.8413792E+01  9.9800214E+02
 3.8439041E+01  9.9664569E+02
 3.8464287E+01  9.9365546E+02
 3.8489536E+01  9.9436786E+02
 3.8514782E+01  9.9323505E+02
 3.8540028E+01  9.9195618E+02
 3.8565277E+01  9.9117584E+02
 3.8590523E+01  9.8987921E+02
 3.8615772E+01  9.6898120E+02
 3.8641018E+01  9.8084393E+02
 3.8666267E+01  9.8309320E+02
 3.8691513E+01  9.8206189E+02
 3.8716759E+01  9.7975873E+02
 3.8742008E+01  9.7982166E+02
 3.8767254E+01  9.7602246E+02
 3.8792503E+01  9.7118585E+02
 3.8817749E+01  9.6902875E+02
 3.8842999E+01  9.6839410E+02
 3.8868244E+01  9.6765564E+02
 3.8893490E+01  9.6667682E+02
 3.8918739E+01  9.6655060E+02
 3.8943985E+01  9.7043994E+02
 3.8969234E+01  9.6538477E+02
 3.8994480E+01  9.6168500E+02
 3.9019730E+01  9.6202728E+02
 3.9044975E+01  9.5936139E+02
 3.9070225E+01  9.6154419E+02
 3.9095470E+01  9.6058038E+02
 3.9120716E+01  9.5669238E+02
 3.9145966E+01  9.5495129E+02
 3.9171211E+01  9.5095349E+02
 3.9196461E+01  9.4642084E+02
 3.9221706E+01  9.5166699E+02
 3.9246956E+01  9.4752368E+02
 3.9272202E+01  9.4918604E+02
 3.9297447E+01  9.4646088E+02
 3.9322697E+01  9.4144232E+02
 3.9347942E+01  9.4228918E+02
 3.9373192E+01  9.3450543E+02
 3.9398438E+01  9.3491632E+02
 3.9423687E+01  9.3964417E+02
 3.9448933E+01  9.3751459E+02
 3.9474178E+01  9.3358063E+02
 3.9499428E+01  9.3477850E+02
 3.9524673E+01  9.2736816E+02
 3.9549923E+01  9.2845294E+02
 3.9575169E+01  9.2492743E+02
 3.9600418E+01  9.2326068E+02
 3.9625664E+01  9.2246210E+02
 3.9650909E+01  9.2082813E+02
 3.9676159E+01  9.1798303E+02
 3.9701405E+01  9.1319666E+02
 3.9726654E+01  9.1626074E+02
 3.9751900E+01  9.1611353E+02
 3.9777149E+01  9.0954218E+02
 3.9802395E+01  9.0711755E+02
 3.9827641E+01  9.0266644E+02
 3.9852890E+01  9.0089771E+02
 3.9878136E+01  8.9868250E+02
 3.9903385E+01  8.9599371E+02
 3.9928631E+01  9.0012427E+02
 3.9953880E+01  8.9726550E+02
 3.9979126E+01  8.9507910E+02
 4.0004375E+01  8.9195227E+02
 4.0029621E+01  8.8855841E+02
 4.0054867E+01  8.8549072E+02
 4.0080116E+01  8.8215216E+02
 4.0105362E+01  8.7611420E+02
 4.0130611E+01  8.7543231E+02
 4.0155857E+01  8.7318524E+02
 4.0181107E+01  8.7124432E+02
 4.0206352E+01  8.6959009E+02
 4.0231598E+01  8.6520172E+02
 4.0256847E+01  8.6254004E+02
 4.0282093E+01  8.5799408E+02
 4.0307343E+01  8.5744598E+02
 4.0332588E+01  8.5492542E+02
 4.0357838E+01  8.4980780E+02
 4.0383083E+01  8.4788660E+02
 4.0408329E+01  8.4455237E+02
 4.0433578E+01  8.4374683E+02
 4.0458824E+01  8.4076190E+02
 4.0484074E+01  8.4020148E+02
 4.0509319E+01  8.3267126E+02
 4.0534569E+01  8.2420984E+02
 4.0559814E+01  8.1966516E+02
 4.0585060E+01  8.1939520E+02
 4.0610310E+01  8.1497528E+02
 4.0635555E+01  8.1293610E+02
 4.0660805E+01  8.0766693E+02
 4.0686050E+01  8.0114020E+02
 4.0711300E+01  8.0467102E+02
 4.0736546E+01  7.9873315E+02
 4.0761791E+01  7.8696802E+02
 4.0787041E+01  7.7676337E+02
 4.0812286E+01  7.6487964E+02
 4.0837536E+01  7.6576526E+02
 4.0862782E+01  7.6076837E+02
 4.0888031E+01  7.5550800E+02
 4.0913277E+01  7.7151398E+02
 4.0938526E+01  7.7812091E+02
 4.0963772E+01  7.8472211E+02
 4.0989017E+01  7.9767548E+02
 4.1014267E+01  8.2120044E+02
 4.1039513E+01  8.4102216E+02
 4.1064762E+01  8.4575513E+02
 4.1090008E+01  8.4323163E+02
 4.1115257E+01  8.3963593E+02
 4.1140503E+01  8.3488678E+02
 4.1165749E+01  8.2492706E+02
 4.1190998E+01  8.1297601E+02
 4.1216244E+01  8.1190137E+02
 4.1241493E+01  8.0937268E+02
 4.1266739E+01  8.0888678E+02
 4.1291988E+01  8.0089874E+02
 4.1317234E+01  7.9613354E+02
 4.1342480E+01  7.8939874E+02
 4.1367729E+01  7.8901288E+02
 4.1392975E+01  7.7138782E+02
 4.1418224E+01  7.6174066E+02
 4.1443470E+01  7.6137268E+02
 4.1468719E+01  7.5392578E+02
 4.1493965E+01  7.3480133E+02
 4.1519211E+01  7.1859906E+02
 4.1544460E+01  7.2176184E+02
 4.1569706E+01  6.8711346E+02
 4.1594955E+01  6.7735321E+02
 4.1620201E+01  6.6345947E+02
 4.1645451E+01  6.4660809E+02
 4.1670696E+01  6.2064069E+02
 4.1695946E+01  5.7289209E+02
 4.1721191E+01  5.4744250E+02
 4.1746437E+01  4.5015479E+02
 4.1771687E+01  3.5573395E+02
 4.1796932E+01  3.1628998E+02
 4.1822182E+01  2.4599295E+02
 4.1847427E+01  2.1816174E+02
 4.1872677E+01  1.6676541E+02
 4.1897923E+01  9.7202019E+01
 4.1923168E+01  4.0921329E+01
 4.1948418E+01 -1.2238710E+00
